points_scored,ppg,opponent_ppg,win_perc,opponnent_win_perc,last_10_win_perc,opponent_last_10_win_perc
110,99.75,99.0,0.5,0.75,0.5,0.75
119,98.0,106.5,0.75,0.5,0.75,0.5
97,90.25,96.6,0.25,0.0,0.25,0
73,90.0,104.5,0.0,0.25,0,0.25
116,102.8,110.2,0.6,0.6,0.6,0.6
108,110.0,105.75,0.6,0.6,0.6,0.6
96,96.4,119.2,0.4,0.4,0.4,0.4
85,97.4,98.8,0.4,0.4,0.4,0.4
76,99.6,102.6,0.8,0.8,0.8,0.8
74,110.8,97.0,0.8,0.8,0.8,0.8
114,97.4,90,0.6,0.25,0.6,0.25
103,97.25,96.4,0.25,0.6,0.25,0.6
104,105.0,91.33333333333333,0.5,0.25,0.5,0.25
91,94.5,101.0,0.25,0.5,0.25,0.5
115,92.33333333333333,96.66666666666667,0.3333333333333333,0.0,0.3333333333333333,0
91,87.16666666666667,92.5,0.0,0.3333333333333333,0,0.3333333333333333
104,105.2,120,0.4,0.6,0.4,0.6
94,103.8,110.0,0.6,0.4,0.6,0.4
91,98.6,90.33333333333333,0.4,1.0,0.4,1
96,94.2,103.2,1.0,0.4,1,0.4
127,88.66666666666667,106.0,0.3333333333333333,0.6666666666666666,0.3333333333333333,0.6666666666666666
125,102.66666666666667,94.5,0.6666666666666666,0.3333333333333333,0.6666666666666666,0.3333333333333333
110,103.8,91.5,0.6,0.3333333333333333,0.6,0.3333333333333333
111,89.66666666666667,104.375,0.3333333333333333,0.6,0.3333333333333333,0.6
94,107.5,107.33333333333333,0.6666666666666666,0.5,0.6666666666666666,0.5
107,110.5,99.4,0.5,0.6666666666666666,0.5,0.6666666666666666
108,96.6,98.16666666666667,0.4,0.6666666666666666,0.4,0.6666666666666666
90,104.66666666666667,104.33333333333333,0.6666666666666666,0.4,0.6666666666666666,0.4
83,96.75,111.16666666666667,0.5,0.5,0.5,0.5
91,109.66666666666667,94.0,0.5,0.5,0.5,0.5
85,93.8,101.0,0.2,0.6,0.2,0.6
96,104.8,93.86666666666666,0.6,0.2,0.6,0.2
89,93.8,97.0,0.4,0.8333333333333334,0.4,0.8333333333333334
120,95.66666666666667,84.2,0.8333333333333334,0.4,0.8333333333333334,0.4
106,102.2,107.75,0.8,0.4,0.8,0.4
105,105.0,101.2,0.4,0.8,0.4,0.8
101,100.16666666666667,98.8,0.6666666666666666,0.5,0.6666666666666666,0.5
94,96.33333333333333,96.4,0.5,0.6666666666666666,0.5,0.6666666666666666
90,95.33333333333333,105.75,0.3333333333333333,0.6666666666666666,0.3333333333333333,0.6666666666666666
113,105.0,115.33333333333333,0.6666666666666666,0.3333333333333333,0.6666666666666666,0.3333333333333333
94,90.33333333333333,110.0,0.5,0.5,0.5,0.5
103,105.0,98.5,0.5,0.5,0.5,0.5
95,94.5,104.33333333333333,1.0,0.5,1,0.5
79,98.5,90.44444444444444,0.5,1.0,0.5,1
85,105.85714285714286,95.85714285714286,0.5714285714285714,0.8571428571428571,0.5714285714285714,0.8571428571428571
109,99.14285714285714,109.0,0.8571428571428571,0.5714285714285714,0.8571428571428571,0.5714285714285714
120,92.71428571428571,117.33333333333333,0.42857142857142855,0.5,0.42857142857142855,0.5
105,102.16666666666667,94.14285714285714,0.5,0.42857142857142855,0.5,0.42857142857142855
96,91.6,94.5,0.4,0.42857142857142855,0.4,0.42857142857142855
81,94.14285714285714,104.5,0.42857142857142855,0.4,0.42857142857142855,0.4
110,105.57142857142857,92.5,0.5714285714285714,0.42857142857142855,0.5714285714285714,0.42857142857142855
104,95.57142857142857,99.4,0.42857142857142855,0.5714285714285714,0.42857142857142855,0.5714285714285714
81,87.71428571428571,94.8,0.0,0.2,0,0.2
100,98.4,99.28571428571429,0.2,0.0,0.2,0
109,103.33333333333333,106.5,0.6666666666666666,0.4,0.6666666666666666,0.4
103,101.8,98.33333333333333,0.4,0.6666666666666666,0.4,0.6666666666666666
109,110.0,103.5,0.5714285714285714,0.7142857142857143,0.5714285714285714,0.7142857142857143
107,106.14285714285714,105.42857142857143,0.7142857142857143,0.5714285714285714,0.7142857142857143,0.5714285714285714
118,104.83333333333333,94.0,0.5,0.4,0.5,0.4
95,94.0,104.375,0.4,0.5,0.4,0.5
105,107.0,107.45833333333333,0.5714285714285714,0.3333333333333333,0.5714285714285714,0.3333333333333333
95,105.0,107.14285714285714,0.3333333333333333,0.5714285714285714,0.3333333333333333,0.5714285714285714
113,102.57142857142857,106.91666666666667,0.5714285714285714,0.3333333333333333,0.5714285714285714,0.3333333333333333
95,102.0,99.57142857142857,0.3333333333333333,0.5714285714285714,0.3333333333333333,0.5714285714285714
116,94.57142857142857,99.11428571428571,0.2857142857142857,0.42857142857142855,0.2857142857142857,0.42857142857142855
95,96.0,115.33333333333333,0.42857142857142855,0.2857142857142857,0.42857142857142855,0.2857142857142857
94,102.57142857142857,98.0,0.42857142857142855,0.3333333333333333,0.42857142857142855,0.3333333333333333
91,94.16666666666667,117.71428571428571,0.3333333333333333,0.42857142857142855,0.3333333333333333,0.42857142857142855
123,103.25,99.4,0.5,0.625,0.5,0.625
117,106.125,109.0,0.625,0.5,0.625,0.5
83,96.125,98.5,0.5,0.42857142857142855,0.5,0.42857142857142855
89,90.85714285714286,94.14285714285714,0.42857142857142855,0.5,0.42857142857142855,0.5
91,104.71428571428571,84.2,0.5714285714285714,0.3333333333333333,0.5714285714285714,0.3333333333333333
95,93.0,107.71428571428571,0.3333333333333333,0.5714285714285714,0.3333333333333333,0.5714285714285714
87,95.71428571428571,94.6875,0.42857142857142855,0.375,0.42857142857142855,0.375
103,96.625,103.0,0.375,0.42857142857142855,0.375,0.42857142857142855
124,106.25,94.6875,0.625,0.375,0.625,0.375
95,92.5,104.1875,0.375,0.625,0.375,0.625
92,100.375,107.10714285714286,0.875,0.2857142857142857,0.875,0.2857142857142857
79,103.57142857142857,94.5,0.2857142857142857,0.875,0.2857142857142857,0.875
111,98.66666666666667,115.33333333333333,0.3333333333333333,0.375,0.3333333333333333,0.375
99,97.25,92.5,0.375,0.3333333333333333,0.375,0.3333333333333333
111,86.875,101.225,0.0,0.375,0,0.375
105,95.875,99.28571428571429,0.375,0.0,0.375,0
90,104.14285714285714,96.4,0.7142857142857143,0.7142857142857143,0.7142857142857143,0.7142857142857143
89,100.28571428571429,98.33333333333333,0.7142857142857143,0.7142857142857143,0.7142857142857143,0.7142857142857143
107,92.33333333333333,103.2,0.16666666666666666,0.3333333333333333,0.16666666666666666,0.3333333333333333
86,97.33333333333333,93.86666666666666,0.3333333333333333,0.16666666666666666,0.3333333333333333,0.16666666666666666
111,109.875,101.2,0.625,0.8333333333333334,0.625,0.8333333333333334
103,102.83333333333333,105.42857142857143,0.8333333333333334,0.625,0.8333333333333334,0.625
106,93.28571428571429,102.02222222222223,0.42857142857142855,0.5555555555555556,0.42857142857142855,0.5555555555555556
109,107.33333333333333,85.17142857142858,0.5555555555555556,0.42857142857142855,0.5555555555555556,0.42857142857142855
116,103.875,102.60000000000001,0.625,0.7142857142857143,0.625,0.7142857142857143
115,102.85714285714286,99.57142857142857,0.7142857142857143,0.625,0.7142857142857143,0.625
104,94.57142857142857,97.42857142857143,1.0,0.2857142857142857,1,0.2857142857142857
77,93.71428571428571,90.44444444444444,0.2857142857142857,1.0,0.2857142857142857,1
80,97.33333333333333,104.5,0.4444444444444444,0.5,0.4444444444444444,0.5
96,92.33333333333333,93.83333333333333,0.5,0.4444444444444444,0.5,0.4444444444444444
113,103.0,109.0,0.5,0.5555555555555556,0.5,0.5555555555555556
103,105.44444444444444,107.71428571428571,0.5555555555555556,0.5,0.5555555555555556,0.5
96,94.66666666666667,98.33333333333333,0.4444444444444444,0.75,0.4444444444444444,0.75
109,102.375,94.14285714285714,0.75,0.4444444444444444,0.75,0.4444444444444444
80,92.77777777777777,96.5625,0.3333333333333333,0.5,0.3333333333333333,0.5
86,90.625,97.94444444444444,0.5,0.3333333333333333,0.5,0.3333333333333333
110,106.71428571428571,107.14285714285714,0.5714285714285714,0.625,0.5714285714285714,0.625
104,106.75,104.375,0.625,0.5714285714285714,0.625,0.5714285714285714
117,100.42857142857143,104.1875,0.42857142857142855,0.6666666666666666,0.42857142857142855,0.6666666666666666
113,108.22222222222223,92.5,0.6666666666666666,0.42857142857142855,0.6666666666666666,0.42857142857142855
98,98.875,103.74285714285715,0.625,0.2857142857142857,0.625,0.2857142857142857
100,95.71428571428571,95.60000000000001,0.2857142857142857,0.625,0.2857142857142857,0.625
82,89.55555555555556,94.5,0.1111111111111111,0.8888888888888888,0.1111111111111111,0.8888888888888888
91,99.44444444444444,99.28571428571429,0.8888888888888888,0.1111111111111111,0.8888888888888888,0.1111111111111111
86,97.44444444444444,103.0,0.3333333333333333,0.375,0.3333333333333333,0.375
89,94.625,114.85185185185183,0.375,0.3333333333333333,0.375,0.3333333333333333
90,94.42857142857143,107.78571428571429,0.2857142857142857,0.2857142857142857,0.2857142857142857,0.2857142857142857
97,101.0,93.86666666666666,0.2857142857142857,0.2857142857142857,0.2857142857142857,0.2857142857142857
81,90.11111111111111,104.375,0.5555555555555556,0.625,0.5555555555555556,0.625
97,107.125,94.72222222222223,0.625,0.5555555555555556,0.625,0.5555555555555556
100,101.5,107.46031746031746,0.5,0.5555555555555556,0.5,0.5555555555555556
108,106.44444444444444,117.71428571428571,0.5555555555555556,0.5,0.5555555555555556,0.5
96,100.5,97.94444444444444,0.25,0.3,0.25,0.3
103,91.5,105.21875,0.3,0.25,0.3,0.25
90,94.875,107.71428571428571,0.375,0.5555555555555556,0.375,0.5555555555555556
110,104.11111111111111,85.17142857142858,0.5555555555555556,0.375,0.5555555555555556,0.375
110,92.85714285714286,90.44444444444444,0.5714285714285714,1.0,0.5714285714285714,1
94,95.75,101.0,1.0,0.5714285714285714,1,0.5714285714285714
122,107.5,92.5,0.6,0.5,0.6,0.5
111,102.5,102.42,0.5,0.6,0.5,0.6
106,108.7,94.14285714285714,0.6,0.4,0.6,0.4
88,94.8,105.46875,0.4,0.6,0.4,0.6
135,96.88888888888889,109.4,0.3333333333333333,0.5,0.3333333333333333,0.5
98,105.2,102.3111111111111,0.5,0.3333333333333333,0.5,0.3333333333333333
79,91.625,104.275,0.25,0.625,0.25,0.625
92,104.375,98.25,0.625,0.25,0.625,0.25
102,105.22222222222223,99.28571428571429,0.6666666666666666,0.1,0.6666666666666666,0.1
88,88.8,99.57142857142857,0.1,0.6666666666666666,0.1,0.6666666666666666
110,110.0,103.025,0.6666666666666666,0.375,0.6666666666666666,0.375
103,96.25,105.42857142857143,0.375,0.6666666666666666,0.375,0.6666666666666666
110,95.6,98.07407407407408,0.4,0.7777777777777778,0.4,0.7777777777777778
118,103.11111111111111,93.83333333333333,0.7777777777777778,0.4,0.7777777777777778,0.4
86,93.875,101.11111111111111,0.25,0.4444444444444444,0.25,0.4444444444444444
97,94.0,93.86666666666666,0.4444444444444444,0.25,0.4444444444444444,0.25
114,96.3,105.5625,0.3,0.375,0.3,0.375
99,100.5,114.85185185185183,0.375,0.3,0.375,0.3
98,97.0,99.26666666666668,0.3333333333333333,0.8,0.3333333333333333,0.8
108,104.6,103.80000000000001,0.8,0.3333333333333333,0.8,0.3333333333333333
86,95.0,94.72222222222223,0.625,0.5,0.625,0.5
81,89.2,101.0,0.5,0.625,0.5,0.625
115,103.0,95.77777777777777,0.6666666666666666,0.4444444444444444,0.6666666666666666,0.4444444444444444
113,103.44444444444444,101.46666666666667,0.4444444444444444,0.6666666666666666,0.4444444444444444,0.6666666666666666
97,106.6,111.72727272727273,0.6,0.45454545454545453,0.6,0.4
94,104.54545454545455,106.71428571428571,0.45454545454545453,0.6,0.4,0.6
87,88.72727272727273,99.57142857142857,0.09090909090909091,0.7,0.1,0.7
98,104.9,99.53246753246754,0.7,0.09090909090909091,0.7,0.1
102,110.0,99.6,0.7,0.5,0.7,0.5
106,94.3,105.42857142857143,0.5,0.7,0.5,0.7
104,100.0,105.46875,0.2222222222222222,0.6363636363636364,0.2222222222222222,0.6
100,108.45454545454545,105.21875,0.6363636363636364,0.2222222222222222,0.6,0.2222222222222222
92,100.33333333333333,85.17142857142858,0.3333333333333333,0.3333333333333333,0.3333333333333333,0.3333333333333333
86,94.33333333333333,106.5,0.3333333333333333,0.3333333333333333,0.3333333333333333,0.3333333333333333
104,106.0,105.94285714285714,0.6666666666666666,0.6,0.6666666666666666,0.6
88,104.7,101.77777777777777,0.6,0.6666666666666666,0.6,0.6666666666666666
109,108.81818181818181,95.2207792207792,0.6363636363636364,0.36363636363636365,0.6,0.4
85,94.18181818181819,102.42,0.36363636363636365,0.6363636363636364,0.4,0.6
107,93.0,95.60000000000001,0.2222222222222222,0.5555555555555556,0.2222222222222222,0.5555555555555556
104,98.77777777777777,93.86666666666666,0.5555555555555556,0.2222222222222222,0.5555555555555556,0.2222222222222222
95,88.45454545454545,103.80000000000001,0.45454545454545453,0.3,0.5,0.3
91,97.1,93.92929292929293,0.3,0.45454545454545453,0.3,0.5
91,92.54545454545455,105.21875,0.36363636363636365,0.3,0.3,0.3
98,100.4,97.76767676767676,0.3,0.36363636363636365,0.3,0.3
96,93.5,92.61728395061728,0.3,0.8888888888888888,0.3,0.8888888888888888
103,95.55555555555556,85.85428571428572,0.8888888888888888,0.3,0.8888888888888888,0.3
92,101.33333333333333,101.77777777777777,0.4444444444444444,0.7,0.4444444444444444,0.7
120,105.8,117.71428571428571,0.7,0.4444444444444444,0.7,0.4444444444444444
98,103.66666666666667,93.83333333333333,0.4166666666666667,0.36363636363636365,0.3,0.3
108,96.9090909090909,110.5,0.36363636363636365,0.4166666666666667,0.3,0.3
93,103.18181818181819,106.5,0.5454545454545454,0.4,0.6,0.4
85,99.5,105.76623376623375,0.4,0.5454545454545454,0.4,0.6
82,90.22222222222223,99.15151515151516,0.2222222222222222,0.8181818181818182,0.2222222222222222,0.9
91,104.9090909090909,98.25,0.8181818181818182,0.2222222222222222,0.9,0.2222222222222222
98,107.75,105.42857142857143,0.5833333333333334,0.6363636363636364,0.5,0.7
102,109.27272727272727,105.34635416666667,0.6363636363636364,0.5833333333333334,0.7,0.5
105,100.7,99.53246753246754,0.4,0.08333333333333333,0.4,0.1
98,88.58333333333333,102.3111111111111,0.08333333333333333,0.4,0.1,0.4
104,98.6,96.3690476190476,0.9,0.3333333333333333,0.9,0.4
93,93.41666666666667,93.25,0.3333333333333333,0.9,0.4,0.9
106,99.3,93.86666666666666,0.5,0.3,0.5,0.3
113,94.4,96.74000000000001,0.3,0.5,0.3,0.5
123,105.72727272727273,102.42,0.6363636363636364,0.6666666666666666,0.6,0.6
120,108.83333333333333,106.71428571428571,0.6666666666666666,0.6363636363636364,0.6,0.6
81,104.27272727272727,99.81818181818181,0.7272727272727273,0.5454545454545454,0.7,0.6
88,95.36363636363636,98.42857142857143,0.5454545454545454,0.7272727272727273,0.6,0.7
105,104.2,104.80952380952381,0.7,0.6666666666666666,0.7,0.7
91,108.66666666666667,101.46666666666667,0.6666666666666666,0.7,0.7,0.7
97,104.4,101.0,0.4,0.6666666666666666,0.4,0.6666666666666666
87,94.0,97.7,0.6666666666666666,0.4,0.6666666666666666,0.4
91,89.0,96.74000000000001,0.5,0.45454545454545453,0.5,0.4
98,99.9090909090909,93.92929292929293,0.45454545454545453,0.5,0.4,0.5
115,103.23076923076923,98.25,0.38461538461538464,0.2,0.2,0.2
107,89.4,110.5,0.2,0.38461538461538464,0.2,0.2
96,97.83333333333333,103.92613636363636,0.4166666666666667,0.36363636363636365,0.4,0.4
88,100.18181818181819,94.18055555555554,0.36363636363636365,0.4166666666666667,0.4,0.4
82,93.38461538461539,92.95555555555555,0.3076923076923077,0.9,0.4,0.9
97,96.3,96.95604395604394,0.9,0.3076923076923077,0.9,0.4
89,98.18181818181819,105.76623376623375,0.36363636363636365,0.5833333333333334,0.3,0.6
96,102.33333333333333,105.27272727272727,0.5833333333333334,0.36363636363636365,0.6,0.3
86,94.75,93.25,0.5833333333333334,0.9090909090909091,0.6,0.9
102,99.0909090909091,98.25,0.9090909090909091,0.5833333333333334,0.9,0.6
111,107.0,103.0,0.5384615384615384,0.2727272727272727,0.4,0.3
81,96.54545454545455,105.34635416666667,0.2727272727272727,0.5384615384615384,0.3,0.4
104,101.0909090909091,97.76767676767676,0.45454545454545453,0.3333333333333333,0.5,0.3
100,92.41666666666667,102.3111111111111,0.3333333333333333,0.45454545454545453,0.3,0.5
103,107.16666666666667,99.95304695304695,0.6666666666666666,0.07692307692307693,0.7,0.1
93,89.3076923076923,106.71428571428571,0.07692307692307693,0.6666666666666666,0.1,0.7
98,103.75,100.6,0.8333333333333334,0.6,0.9,0.6
95,93.3,97.72222222222223,0.6,0.8333333333333334,0.6,0.9
102,97.9090909090909,98.42857142857143,0.36363636363636365,0.6666666666666666,0.4,0.7
95,102.33333333333333,114.85185185185183,0.6666666666666666,0.36363636363636365,0.7,0.4
103,107.3076923076923,94.96969696969695,0.6153846153846154,0.36363636363636365,0.6,0.3
102,96.0909090909091,104.82417582417582,0.36363636363636365,0.6153846153846154,0.3,0.6
106,96.36363636363636,110.5,0.9090909090909091,0.42857142857142855,0.9,0.3
98,104.07142857142857,91.95959595959594,0.42857142857142855,0.9090909090909091,0.3,0.9
98,99.16666666666667,85.85428571428572,0.3333333333333333,0.2727272727272727,0.4,0.2
89,93.72727272727273,103.265625,0.2727272727272727,0.3333333333333333,0.2,0.4
87,101.84615384615384,96.95604395604394,0.6153846153846154,0.2857142857142857,0.7,0.4
94,92.57142857142857,104.47652347652345,0.2857142857142857,0.6153846153846154,0.4,0.7
101,107.0909090909091,117.71428571428571,0.7272727272727273,0.4,0.8,0.4
99,100.4,100.8888888888889,0.4,0.7272727272727273,0.4,0.8
112,109.6923076923077,105.34635416666667,0.6153846153846154,0.5714285714285714,0.5,0.5
101,107.28571428571429,104.00307692307692,0.5714285714285714,0.6153846153846154,0.5,0.5
72,91.0,93.92929292929293,0.18181818181818182,0.46153846153846156,0.2,0.5
96,89.15384615384616,99.77272727272727,0.46153846153846156,0.18181818181818182,0.5,0.2
126,99.33333333333333,98.24708624708623,0.9166666666666666,0.3076923076923077,0.9,0.3
96,93.0,92.64583333333333,0.3076923076923077,0.9166666666666666,0.3,0.9
102,103.72727272727273,106.71428571428571,0.45454545454545453,0.6923076923076923,0.5,0.7
100,106.84615384615384,97.7,0.6923076923076923,0.45454545454545453,0.7,0.5
101,101.76923076923077,97.72222222222223,0.6153846153846154,0.8461538461538461,0.6,0.9
113,103.3076923076923,98.7032967032967,0.8461538461538461,0.6153846153846154,0.9,0.6
97,95.25,105.27272727272727,0.25,0.3333333333333333,0.2,0.3
109,97.41666666666667,103.66666666666667,0.3333333333333333,0.25,0.3,0.2
121,107.0,100.36363636363636,0.6428571428571429,0.5454545454545454,0.6,0.6
82,93.45454545454545,104.82417582417582,0.5454545454545454,0.6428571428571429,0.6,0.6
96,100.27272727272727,96.26166666666667,0.36363636363636365,0.5,0.4,0.4
104,99.75,116.1948051948052,0.5,0.36363636363636365,0.4,0.4
95,104.27272727272727,100.17068645640074,0.7272727272727273,0.07142857142857142,0.7,0.1
73,89.57142857142857,101.46666666666667,0.07142857142857142,0.7272727272727273,0.1,0.7
100,98.25,95.63888888888887,0.4166666666666667,0.3333333333333333,0.5,0.3
86,96.58333333333333,114.85185185185183,0.3333333333333333,0.4166666666666667,0.3,0.5
86,89.64285714285714,96.29230769230769,0.5,0.3333333333333333,0.5,0.4
96,92.66666666666667,92.36291486291486,0.3333333333333333,0.5,0.4,0.5
98,97.16666666666667,105.78993055555557,0.9166666666666666,0.5333333333333333,0.9,0.5
84,106.86666666666666,91.95959595959594,0.5333333333333333,0.9166666666666666,0.5,0.9
113,98.3076923076923,99.77272727272727,0.38461538461538464,0.16666666666666666,0.3,0.1
94,89.41666666666667,104.63636363636364,0.16666666666666666,0.38461538461538464,0.1,0.3
107,106.58333333333333,96.24153846153847,0.75,0.5384615384615384,0.9,0.5
92,100.07692307692308,100.8888888888889,0.5384615384615384,0.75,0.5,0.9
86,94.07692307692308,104.00307692307692,0.5384615384615384,0.6428571428571429,0.6,0.6
93,109.85714285714286,98.25,0.6428571428571429,0.5384615384615384,0.6,0.6
96,106.35714285714286,97.7,0.6428571428571429,0.5,0.6,0.6
110,103.58333333333333,106.37755102040816,0.5,0.6428571428571429,0.6,0.6
112,101.38461538461539,102.3111111111111,0.9230769230769231,0.5,1,0.6
93,101.33333333333333,92.64583333333333,0.5,0.9230769230769231,0.6,1
89,88.46666666666667,102.08333333333333,0.06666666666666667,0.5,0.1,0.5
83,92.5,99.82597402597403,0.5,0.06666666666666667,0.5,0.1
102,104.0,86.86642857142859,0.8571428571428571,0.25,1,0.2
91,93.33333333333333,97.9563492063492,0.25,0.8571428571428571,0.2,1
100,97.6923076923077,103.66666666666667,0.46153846153846156,0.23076923076923078,0.4,0.2
102,95.38461538461539,94.18055555555554,0.23076923076923078,0.46153846153846156,0.2,0.4
116,99.07692307692308,114.85185185185183,0.38461538461538464,0.46153846153846156,0.5,0.5
111,98.38461538461539,103.265625,0.46153846153846156,0.38461538461538464,0.5,0.5
92,100.78571428571429,116.1948051948052,0.5714285714285714,0.3333333333333333,0.6,0.3
109,99.91666666666667,104.47652347652345,0.3333333333333333,0.5714285714285714,0.3,0.6
101,100.6923076923077,98.7032967032967,0.46153846153846156,0.5714285714285714,0.5,0.5
102,101.71428571428571,103.05641025641025,0.5714285714285714,0.46153846153846156,0.5,0.5
74,89.4,91.95959595959594,0.4666666666666667,0.9230769230769231,0.4,0.9
99,97.23076923076923,92.36291486291486,0.9230769230769231,0.4666666666666667,0.9,0.4
105,100.61538461538461,110.2,0.38461538461538464,0.4,0.3,0.3
94,103.66666666666667,114.33366633366633,0.4,0.38461538461538464,0.3,0.3
93,92.875,98.25,0.375,0.5,0.4,0.5
100,93.5,95.64903846153845,0.5,0.375,0.5,0.4
94,95.85714285714286,114.93386243386242,0.2857142857142857,0.42857142857142855,0.2,0.5
99,99.28571428571429,103.40476190476191,0.42857142857142855,0.2857142857142857,0.5,0.2
84,93.21428571428571,100.8888888888889,0.2857142857142857,0.7692307692307693,0.2,0.9
95,106.61538461538461,100.22943722943721,0.7692307692307693,0.2857142857142857,0.9,0.2
79,99.35714285714286,101.07692307692308,0.42857142857142855,0.46153846153846156,0.4,0.5
99,91.76923076923077,104.63636363636364,0.46153846153846156,0.42857142857142855,0.5,0.4
113,108.73333333333333,104.47652347652345,0.6666666666666666,0.5333333333333333,0.6,0.6
84,100.2,102.80287179487179,0.5333333333333333,0.6666666666666666,0.6,0.6
92,89.76923076923077,103.265625,0.15384615384615385,0.42857142857142855,0.1,0.5
100,100.28571428571429,100.79020979020979,0.42857142857142855,0.15384615384615385,0.5,0.1
110,105.4375,97.56923076923077,0.5,0.5384615384615384,0.4,0.7
117,104.07692307692308,105.30305989583334,0.5384615384615384,0.5,0.7,0.4
94,103.5,92.64583333333333,0.75,0.9285714285714286,0.8,1
88,102.14285714285714,101.46666666666667,0.9285714285714286,0.75,1,0.8
103,105.66666666666667,98.85641025641026,0.6,0.6,0.6,0.5
99,101.73333333333333,106.37755102040816,0.6,0.6,0.5,0.6
120,99.5,97.9563492063492,0.5,0.8666666666666667,0.4,1
106,103.86666666666666,97.01,0.8666666666666667,0.5,1,0.4
93,107.93333333333334,88.03054945054947,0.6666666666666666,0.23076923076923078,0.7,0.2
80,93.15384615384616,104.82417582417582,0.23076923076923078,0.6666666666666666,0.2,0.7
92,88.4375,100.79020979020979,0.4375,0.14285714285714285,0.4,0
76,89.92857142857143,92.36291486291486,0.14285714285714285,0.4375,0,0.4
91,100.92857142857143,92.7361111111111,0.42857142857142855,0.8666666666666667,0.3,0.9
109,101.2,114.33366633366633,0.8666666666666667,0.42857142857142855,0.9,0.3
83,97.85714285714286,99.68253968253968,0.42857142857142855,0.7857142857142857,0.4,0.9
90,105.78571428571429,94.18055555555554,0.7857142857142857,0.42857142857142855,0.9,0.4
88,99.1875,106.37755102040816,0.5,0.625,0.5,0.7
87,105.5,105.00924075924074,0.625,0.5,0.7,0.5
103,92.88235294117646,100.22943722943721,0.35294117647058826,0.26666666666666666,0.3,0.2
86,92.6,95.64903846153845,0.26666666666666666,0.35294117647058826,0.2,0.3
102,98.0,113.53827160493826,0.4,0.4666666666666667,0.4,0.5
106,99.26666666666667,104.63636363636364,0.4666666666666667,0.4,0.5,0.4
114,109.0,103.40476190476191,0.6875,0.26666666666666666,0.7,0.2
95,95.73333333333333,102.80287179487179,0.26666666666666666,0.6875,0.2,0.7
93,97.35714285714286,102.51458333333333,0.9285714285714286,0.4666666666666667,0.9,0.5
73,100.26666666666667,90.67676767676767,0.4666666666666667,0.9285714285714286,0.5,0.9
113,102.76923076923077,99.11538461538461,0.7692307692307693,0.5625,0.8,0.5
112,101.5625,101.46666666666667,0.5625,0.7692307692307693,0.5,0.8
105,103.0625,103.05641025641025,0.375,0.42857142857142855,0.2,0.5
121,100.71428571428571,109.875,0.42857142857142855,0.375,0.5,0.2
97,105.0,88.38551020408165,0.5714285714285714,0.21428571428571427,0.7,0.2
95,92.21428571428571,98.45714285714287,0.21428571428571427,0.5714285714285714,0.2,0.7
101,88.5,97.01,0.125,0.5333333333333333,0.2,0.5
112,100.86666666666666,99.82597402597403,0.5333333333333333,0.125,0.5,0.2
98,95.76923076923077,104.82417582417582,0.3076923076923077,0.6875,0.3,0.8
104,107.0,95.97435897435896,0.6875,0.3076923076923077,0.8,0.3
108,98.5625,105.00924075924074,0.4375,0.5294117647058824,0.5,0.5
101,98.52941176470588,101.919921875,0.5294117647058824,0.4375,0.5,0.5
97,92.1875,99.5,0.25,0.5,0.2,0.6
93,92.28571428571429,100.40259740259738,0.5,0.25,0.6,0.2
88,93.93333333333334,104.06696428571429,0.5333333333333333,0.25,0.6,0.2
97,95.6875,97.9,0.25,0.5333333333333333,0.2,0.6
106,104.41176470588235,105.30305989583334,0.5882352941176471,0.47058823529411764,0.6,0.3
112,105.70588235294117,105.29651860744298,0.47058823529411764,0.5882352941176471,0.3,0.6
106,101.6875,102.80287179487179,0.875,0.7058823529411765,0.9,0.8
112,109.29411764705883,92.62760416666666,0.7058823529411765,0.875,0.8,0.9
92,89.0,95.64903846153845,0.13333333333333333,0.3888888888888889,0,0.3
85,93.44444444444444,100.20419580419579,0.3888888888888889,0.13333333333333333,0.3,0
104,101.5625,99.82597402597403,0.5625,0.11764705882352941,0.5,0.2
112,89.23529411764706,97.259375,0.11764705882352941,0.5625,0.2,0.5
98,96.86666666666666,98.45714285714287,0.4,0.6,0.4,0.8
112,104.46666666666667,94.18055555555554,0.6,0.4,0.8,0.4
115,98.25,109.875,0.375,0.35294117647058826,0.4,0.2
100,103.17647058823529,104.63636363636364,0.35294117647058826,0.375,0.2,0.4
100,106.82352941176471,90.67676767676767,0.7058823529411765,0.9333333333333333,0.8,0.9
105,97.06666666666666,104.42275371687137,0.9333333333333333,0.7058823529411765,0.9,0.8
99,104.73333333333333,92.36291486291486,0.8,0.47058823529411764,0.9,0.5
98,88.6470588235294,98.57037037037038,0.47058823529411764,0.8,0.5,0.9
113,95.92857142857143,99.93212669683258,0.2857142857142857,0.5294117647058824,0.3,0.5
115,102.17647058823529,95.97435897435896,0.5294117647058824,0.2857142857142857,0.5,0.3
113,103.5,105.34177879050927,0.7857142857142857,0.5,0.8,0.4
103,106.05555555555556,101.46666666666667,0.5,0.7857142857142857,0.4,0.8
99,92.4,103.1859829059829,0.2,0.4666666666666667,0.1,0.5
103,102.06666666666666,88.95980952380954,0.4666666666666667,0.2,0.5,0.1
108,99.6875,99.33407738095238,0.5,0.8125,0.6,0.9
114,104.0,112.81712962962962,0.8125,0.5,0.9,0.6
98,99.11764705882354,114.33366633366633,0.47058823529411764,0.4,0.6,0.3
80,100.26666666666667,101.919921875,0.4,0.47058823529411764,0.3,0.6
128,92.33333333333333,102.92435897435897,0.4666666666666667,0.5,0.5,0.5
131,102.125,99.33333333333333,0.5,0.4666666666666667,0.5,0.5
102,101.94117647058823,105.17539405039403,0.8235294117647058,0.5,0.8,0.5
100,98.66666666666667,92.62760416666666,0.5,0.8235294117647058,0.5,0.8
109,90.5,102.98049002849002,0.16666666666666666,0.7222222222222222,0.3,0.8
103,109.44444444444444,100.05786435786437,0.7222222222222222,0.16666666666666666,0.8,0.3
106,104.58823529411765,91.25946969696969,0.8235294117647058,0.9375,0.9,0.9
102,97.5625,99.843837535014,0.9375,0.8235294117647058,0.9,0.9
126,103.0,113.31281218781218,0.3333333333333333,0.375,0.2,0.3
125,99.0,110.15972222222223,0.375,0.3333333333333333,0.3,0.2
108,93.0,100.20419580419579,0.3684210526315789,0.1875,0.3,0.1
100,89.1875,95.456983805668,0.1875,0.3684210526315789,0.1,0.3
87,95.76470588235294,98.42857142857144,0.29411764705882354,0.625,0.3,0.8
111,104.9375,103.1218487394958,0.625,0.29411764705882354,0.8,0.3
97,104.375,104.63636363636364,0.8125,0.4117647058823529,1,0.5
107,99.23529411764706,98.57037037037038,0.4117647058823529,0.8125,0.5,1
110,93.5625,97.259375,0.5,0.5294117647058824,0.5,0.4
91,101.70588235294117,97.9,0.5294117647058824,0.5,0.4,0.5
89,104.5,92.73164181497515,0.5555555555555556,0.4444444444444444,0.5,0.4
82,89.16666666666667,105.29651860744298,0.4444444444444444,0.5555555555555556,0.4,0.5
95,97.06666666666666,101.46666666666667,0.26666666666666666,0.8,0.3,0.8
97,104.13333333333334,95.97435897435896,0.8,0.26666666666666666,0.8,0.3
112,102.88888888888889,94.18055555555554,0.5555555555555556,0.375,0.5,0.4
103,96.9375,100.65811965811966,0.375,0.5555555555555556,0.4,0.5
98,92.47058823529412,97.75630252100842,0.29411764705882354,0.6470588235294118,0.2,0.8
88,105.29411764705883,100.40259740259738,0.6470588235294118,0.29411764705882354,0.8,0.2
107,98.73684210526316,104.42275371687137,0.47368421052631576,0.6666666666666666,0.4,0.7
97,106.44444444444444,105.00826804774172,0.6666666666666666,0.47368421052631576,0.7,0.4
88,109.10526315789474,97.96718750000001,0.6842105263157895,0.5,0.8,0.4
97,101.11111111111111,103.29730634278003,0.5,0.6842105263157895,0.4,0.8
98,89.82352941176471,104.21212121212122,0.17647058823529413,0.4444444444444444,0.1,0.5
105,99.66666666666667,100.66277252159604,0.4444444444444444,0.17647058823529413,0.5,0.1
97,103.82352941176471,105.29651860744298,0.5294117647058824,0.5789473684210527,0.6,0.6
100,103.6842105263158,104.39939668174962,0.5789473684210527,0.5294117647058824,0.6,0.6
86,91.47368421052632,92.12655971479501,0.21052631578947367,0.8823529411764706,0.3,0.8
95,97.82352941176471,100.05786435786437,0.8823529411764706,0.21052631578947367,0.8,0.3
111,104.66666666666667,101.0625,0.8333333333333334,0.8125,0.9,0.8
104,103.6875,99.843837535014,0.8125,0.8333333333333334,0.8,0.9
83,95.27777777777777,88.95980952380954,0.2777777777777778,0.1875,0.2,0.1
113,92.8125,103.1218487394958,0.1875,0.2777777777777778,0.1,0.2
81,94.52941176470588,104.55839825808867,0.5294117647058824,0.631578947368421,0.6,0.6
101,105.94736842105263,97.9,0.631578947368421,0.5294117647058824,0.6,0.6
107,94.5625,98.57037037037038,0.4375,0.7647058823529411,0.4,0.9
87,103.94117647058823,99.33333333333333,0.7647058823529411,0.4375,0.9,0.4
105,88.78947368421052,110.15972222222223,0.42105263157894735,0.3684210526315789,0.3,0.2
88,104.21052631578948,92.53523961418698,0.3684210526315789,0.42105263157894735,0.2,0.3
105,99.05555555555556,100.66277252159604,0.5,0.16666666666666666,0.7,0.1
109,90.27777777777777,101.919921875,0.16666666666666666,0.5,0.1,0.7
108,99.15,100.40259740259738,0.5,0.3333333333333333,0.4,0.3
89,92.77777777777777,105.00826804774172,0.3333333333333333,0.5,0.3,0.4
106,93.75,97.76984126984128,0.4,0.6111111111111112,0.4,0.7
98,104.33333333333333,95.456983805668,0.6111111111111112,0.4,0.7,0.4
121,94.0,114.059117353235,0.23529411764705882,0.35294117647058826,0.1,0.3
83,100.52941176470588,88.60923249299721,0.35294117647058826,0.23529411764705882,0.3,0.1
105,108.05,100.65811965811966,0.65,0.5789473684210527,0.7,0.5
83,103.36842105263158,103.29730634278003,0.5789473684210527,0.65,0.5,0.7
95,103.44444444444444,101.6470588235294,0.5,0.7647058823529411,0.6,0.8
109,103.70588235294117,104.39939668174962,0.7647058823529411,0.5,0.8,0.6
106,100.89473684210526,95.22875816993462,0.5263157894736842,0.35294117647058826,0.5,0.3
97,97.29411764705883,97.44259868421054,0.35294117647058826,0.5263157894736842,0.3,0.5
130,105.0,100.05786435786437,0.8421052631578947,0.2,0.9,0.3
98,91.2,99.843837535014,0.2,0.8421052631578947,0.3,0.9
100,96.9375,112.81712962962962,0.25,0.47058823529411764,0.3,0.6
106,100.17647058823529,95.97435897435896,0.47058823529411764,0.25,0.6,0.3
92,103.4,98.20300751879701,0.35,0.5789473684210527,0.2,0.7
103,104.0,109.9017361111111,0.5789473684210527,0.35,0.7,0.2
88,92.57894736842105,103.38047834518424,0.3157894736842105,0.65,0.3,0.6
82,105.7,100.80246069719752,0.65,0.3157894736842105,0.6,0.3
75,95.29411764705883,103.88516746411484,0.47058823529411764,0.47368421052631576,0.4,0.6
92,99.94736842105263,99.33333333333333,0.47368421052631576,0.47058823529411764,0.6,0.4
82,93.77777777777777,100.87521367521367,0.5,0.55,0.6,0.4
108,102.35,97.9,0.55,0.5,0.4,0.6
82,105.89473684210526,99.03868312757203,0.47368421052631576,0.7222222222222222,0.3,0.8
103,103.0,105.74484306469299,0.7222222222222222,0.47368421052631576,0.8,0.3
82,91.26315789473684,103.1218487394958,0.21052631578947367,0.2631578947368421,0.2,0.2
90,94.63157894736842,100.89104765203835,0.2631578947368421,0.21052631578947367,0.2,0.2
100,101.94444444444444,91.78619528619528,0.8333333333333334,0.8888888888888888,0.8,0.8
111,97.66666666666667,92.62760416666666,0.8888888888888888,0.8333333333333334,0.8,0.8
102,91.52380952380952,95.97435897435896,0.19047619047619047,0.23529411764705882,0.3,0.2
112,97.11764705882354,101.48368034082321,0.23529411764705882,0.19047619047619047,0.2,0.3
106,106.25,104.88169267707083,0.85,0.6,0.9,0.6
108,103.5,99.843837535014,0.6,0.85,0.6,0.9
73,95.5,95.456983805668,0.2777777777777778,0.42857142857142855,0.2,0.5
114,94.33333333333333,88.60923249299721,0.42857142857142855,0.2777777777777778,0.5,0.2
95,99.55,98.14191033138404,0.5,0.7368421052631579,0.6,0.8
110,103.0,102.4409090909091,0.7368421052631579,0.5,0.8,0.6
98,107.9047619047619,114.44472194472195,0.6666666666666666,0.3333333333333333,0.7,0.2
88,99.55555555555556,103.29730634278003,0.3333333333333333,0.6666666666666666,0.2,0.7
118,104.0,92.21850079744816,0.7777777777777778,0.8947368421052632,0.9,0.9
94,98.36842105263158,101.27777777777777,0.8947368421052632,0.7777777777777778,0.9,0.9
94,100.5,95.82716049382715,0.5,0.3333333333333333,0.6,0.3
106,97.27777777777777,112.10506687242797,0.3333333333333333,0.5,0.3,0.6
115,89.6,99.97639397639398,0.45,0.5714285714285714,0.4,0.4
111,102.61904761904762,92.53523961418698,0.5714285714285714,0.45,0.4,0.4
83,102.85714285714286,102.6480746144612,0.3333333333333333,0.6190476190476191,0.2,0.6
94,104.57142857142857,109.9017361111111,0.6190476190476191,0.3333333333333333,0.6,0.2
74,99.36842105263158,97.89285714285715,0.47368421052631576,0.6,0.7,0.8
75,103.95,101.919921875,0.6,0.47368421052631576,0.8,0.7
94,93.15789473684211,113.5792102634208,0.47368421052631576,0.3157894736842105,0.5,0.2
85,98.94736842105263,97.9,0.3157894736842105,0.47368421052631576,0.2,0.5
94,92.0,99.843837535014,0.18181818181818182,0.8095238095238095,0.3,0.8
105,106.23809523809524,101.48368034082321,0.8095238095238095,0.18181818181818182,0.8,0.3
112,97.94444444444444,104.93494540673412,0.2777777777777778,0.6190476190476191,0.3,0.6
97,103.71428571428571,96.3091168091168,0.6190476190476191,0.2777777777777778,0.6,0.3
109,92.35,88.60923249299721,0.35,0.2631578947368421,0.4,0.2
94,94.3157894736842,100.80246069719752,0.2631578947368421,0.35,0.2,0.4
90,98.15,97.98481481481484,0.85,0.75,0.8,0.8
84,103.35,93.50757575757575,0.75,0.85,0.8,0.8
103,97.73684210526316,92.62760416666666,0.3684210526315789,0.7894736842105263,0.3,0.7
116,101.84210526315789,95.73099415204678,0.7894736842105263,0.3684210526315789,0.7,0.3
92,99.57142857142857,101.27777777777777,0.5238095238095238,0.7894736842105263,0.5,0.9
101,104.73684210526316,105.00826804774172,0.7894736842105263,0.5238095238095238,0.9,0.5
104,94.4,94.43621181450126,0.3,0.45454545454545453,0.3,0.6
96,95.22727272727273,102.06575630252101,0.45454545454545453,0.3,0.6,0.3
94,99.33333333333333,105.74484306469299,0.47619047619047616,0.45,0.6,0.3
121,104.7,102.4409090909091,0.45,0.47619047619047616,0.3,0.6
74,94.16666666666667,100.89104765203835,0.4444444444444444,0.2,0.3,0.2
78,90.79999999999998,99.33333333333333,0.2,0.4444444444444444,0.2,0.3
108,100.15789473684211,97.44259868421054,0.47368421052631576,0.55,0.6,0.6
114,101.15,112.10506687242797,0.55,0.47368421052631576,0.6,0.6
83,90.80952380952381,112.60024975024976,0.47619047619047616,0.3,0.5,0.2
92,98.25,92.53523961418698,0.3,0.47619047619047616,0.2,0.5
88,95.26086956521739,101.75498031380386,0.43478260869565216,0.6363636363636364,0.6,0.6
96,104.0909090909091,94.85202869213164,0.6363636363636364,0.43478260869565216,0.6,0.6
100,93.2,100.81388888888888,0.5,0.8,0.5,0.9
116,104.55,97.9,0.8,0.5,0.9,0.5
77,90.19047619047618,93.14622395833332,0.23809523809523808,0.8,0.3,0.7
109,102.55,99.61052157336987,0.8,0.23809523809523808,0.7,0.3
106,105.47619047619048,109.9017361111111,0.47619047619047616,0.3181818181818182,0.3,0.2
99,101.95454545454545,105.18556482351713,0.3181818181818182,0.47619047619047616,0.2,0.3
111,103.0,102.4409090909091,0.47368421052631576,0.45454545454545453,0.6,0.6
106,99.0909090909091,104.39939668174962,0.45454545454545453,0.47368421052631576,0.6,0.6
83,94.3,99.33333333333333,0.25,0.42105263157894735,0.2,0.2
78,93.10526315789474,89.62877086834735,0.42105263157894735,0.25,0.2,0.2
101,98.6842105263158,101.48368034082321,0.3157894736842105,0.17391304347826086,0.4,0.3
122,92.08695652173913,96.3091168091168,0.17391304347826086,0.3157894736842105,0.3,0.4
95,103.0,105.25608425188257,0.5454545454545454,0.5909090909090909,0.4,0.5
93,103.4090909090909,100.65928515928516,0.5909090909090909,0.5454545454545454,0.5,0.4
102,94.85714285714286,101.15693769146456,0.3333333333333333,0.6521739130434783,0.4,0.7
93,103.73913043478261,102.06575630252101,0.6521739130434783,0.3333333333333333,0.7,0.4
111,106.18181818181819,103.29730634278003,0.8181818181818182,0.6818181818181818,0.8,0.7
104,107.45454545454545,99.57820855614973,0.6818181818181818,0.8181818181818182,0.7,0.8
99,97.76190476190476,92.53523961418698,0.8571428571428571,0.45454545454545453,0.8,0.4
94,90.45454545454545,93.50757575757575,0.45454545454545453,0.8571428571428571,0.4,0.8
100,97.95238095238095,100.80246069719752,0.3333333333333333,0.38095238095238093,0.3,0.4
109,93.14285714285714,111.19071404785691,0.38095238095238093,0.3333333333333333,0.4,0.3
108,98.00000000000001,109.73209541062802,0.35,0.30434782608695654,0.3,0.2
100,101.82608695652173,95.73099415204678,0.30434782608695654,0.35,0.2,0.3
101,99.22727272727273,101.919921875,0.5,0.45,0.4,0.6
99,98.1,105.00826804774172,0.45,0.5,0.6,0.4
90,94.95833333333333,89.62877086834735,0.4166666666666667,0.2857142857142857,0.6,0.3
86,93.76190476190476,94.85202869213164,0.2857142857142857,0.4166666666666667,0.3,0.6
103,99.3913043478261,102.06575630252101,0.43478260869565216,0.36363636363636365,0.5,0.5
99,95.18181818181819,102.81304347826088,0.36363636363636365,0.43478260869565216,0.5,0.5
104,103.4,97.9,0.5,0.47619047619047616,0.6,0.4
98,93.52380952380952,104.39939668174962,0.47619047619047616,0.5,0.4,0.6
122,105.0952380952381,112.10506687242797,0.8095238095238095,0.45,0.9,0.6
97,100.55,100.77513227513225,0.45,0.8095238095238095,0.6,0.9
90,89.59090909090908,98.51666666666667,0.22727272727272727,0.4,0.3,0.2
91,92.35,99.61052157336987,0.4,0.22727272727272727,0.2,0.3
117,102.85714285714286,105.18556482351713,0.8095238095238095,0.5,0.7,0.4
110,105.5,92.37735615079364,0.5,0.8095238095238095,0.4,0.7
93,102.57142857142857,101.46352699328891,0.6190476190476191,0.20833333333333334,0.8,0.4
103,93.33333333333333,96.75510204081634,0.20833333333333334,0.6190476190476191,0.4,0.8
116,101.76190476190476,96.3091168091168,0.5714285714285714,0.3,0.7,0.3
107,98.8,97.94533208020052,0.3,0.5714285714285714,0.3,0.7
112,102.65217391304348,103.63220606700699,0.5652173913043478,0.6521739130434783,0.5,0.7
116,107.30434782608695,100.65928515928516,0.6521739130434783,0.5652173913043478,0.7,0.5
85,90.6086956521739,112.5762541642171,0.43478260869565216,0.42857142857142855,0.4,0.5
88,100.38095238095238,92.81631615270058,0.42857142857142855,0.43478260869565216,0.5,0.4
97,98.14285714285714,101.19206528765353,0.42857142857142855,0.625,0.5,0.6
113,103.29166666666667,101.87611607142857,0.625,0.42857142857142855,0.6,0.5
114,102.42857142857143,100.76598521096126,0.7142857142857143,0.4090909090909091,0.7,0.5
107,93.86363636363636,97.60458553791891,0.4090909090909091,0.7142857142857143,0.5,0.7
111,93.4090909090909,105.00826804774172,0.2727272727272727,0.5217391304347826,0.3,0.4
106,99.30434782608695,89.6456449197861,0.5217391304347826,0.2727272727272727,0.4,0.3
77,92.28571428571429,95.73099415204678,0.42857142857142855,0.38095238095238093,0.3,0.4
99,98.47619047619048,98.1111111111111,0.38095238095238093,0.42857142857142855,0.4,0.3
105,101.75,99.57820855614973,0.2916666666666667,0.8260869565217391,0.1,0.8
139,106.3913043478261,109.65992476851852,0.8260869565217391,0.2916666666666667,0.8,0.1
106,102.95652173913044,99.61052157336987,0.5652173913043478,0.21739130434782608,0.4,0.3
93,89.6086956521739,104.81016754527899,0.21739130434782608,0.5652173913043478,0.3,0.4
84,93.72,92.37735615079364,0.24,0.8181818181818182,0.5,0.7
100,103.5,101.12498591355735,0.8181818181818182,0.24,0.7,0.5
109,99.54166666666667,99.80411653297682,0.4583333333333333,0.8333333333333334,0.5,0.8
111,107.75,102.81304347826088,0.8333333333333334,0.4583333333333333,0.8,0.5
93,93.72727272727273,105.69923591814681,0.45454545454545453,0.4782608695652174,0.3,0.4
101,105.69565217391305,98.17727272727274,0.4782608695652174,0.45454545454545453,0.4,0.3
106,99.19047619047619,103.98086414754836,0.2857142857142857,0.6666666666666666,0.2,0.7
91,107.66666666666667,97.24677791344457,0.6666666666666666,0.2857142857142857,0.7,0.2
101,105.86363636363636,111.19071404785691,0.8181818181818182,0.3181818181818182,0.9,0.3
98,98.04545454545455,100.77513227513225,0.3181818181818182,0.8181818181818182,0.3,0.9
102,102.13636363636364,104.39939668174962,0.5909090909090909,0.5238095238095238,0.7,0.6
93,103.42857142857143,96.75510204081634,0.5238095238095238,0.5909090909090909,0.6,0.7
106,102.4090909090909,100.65928515928516,0.5909090909090909,0.5416666666666666,0.7,0.5
102,103.04166666666667,97.94533208020052,0.5416666666666666,0.5909090909090909,0.5,0.7
96,97.81818181818181,102.81304347826088,0.8636363636363636,0.44,0.8,0.5
101,99.92,93.50757575757575,0.44,0.8636363636363636,0.5,0.8
114,99.58333333333333,111.3227880658436,0.5,0.45454545454545453,0.4,0.5
100,99.81818181818181,105.25792354575248,0.45454545454545453,0.5,0.5,0.4
101,94.76,105.17010108822403,0.44,0.5,0.6,0.4
97,105.5,94.85202869213164,0.5,0.44,0.4,0.6
130,95.34782608695652,109.65992476851852,0.34782608695652173,0.28,0.5,0.1
94,101.88,102.10637559371575,0.28,0.34782608695652173,0.1,0.5
117,102.95454545454545,101.12498591355735,0.7272727272727273,0.23076923076923078,0.7,0.4
94,93.34615384615384,97.60458553791891,0.23076923076923078,0.7272727272727273,0.4,0.7
101,94.17391304347827,101.87611607142857,0.30434782608695654,0.4090909090909091,0.4,0.5
102,98.0909090909091,89.6456449197861,0.4090909090909091,0.30434782608695654,0.5,0.4
82,91.59090909090911,110.74763952403706,0.4090909090909091,0.30434782608695654,0.3,0.2
83,98.04347826086956,98.1111111111111,0.30434782608695654,0.4090909090909091,0.2,0.3
115,103.68,92.01312327467218,0.64,0.8260869565217391,0.6,0.7
92,103.34782608695652,101.0243826761474,0.8260869565217391,0.64,0.7,0.6
95,90.375,97.24677791344457,0.4166666666666667,0.3181818181818182,0.3,0.3
87,99.5,92.81631615270058,0.3181818181818182,0.4166666666666667,0.3,0.3
116,94.43478260869566,100.17195187165775,0.391304347826087,0.84,0.5,0.8
119,107.88,101.34137715831078,0.84,0.391304347826087,0.8,0.5
92,93.69565217391305,111.43918858471997,0.43478260869565216,0.43478260869565216,0.3,0.4
96,99.82608695652173,98.17727272727274,0.43478260869565216,0.43478260869565216,0.4,0.3
93,102.1304347826087,100.77513227513225,0.6086956521739131,0.8260869565217391,0.7,0.9
105,105.65217391304348,96.75510204081634,0.8260869565217391,0.6086956521739131,0.9,0.7
104,103.0,104.29033319621554,0.52,0.5,0.4,0.5
93,102.95454545454545,100.87291375291376,0.5,0.52,0.5,0.4
97,103.56521739130434,93.50757575757575,0.7391304347826086,0.8260869565217391,0.7,0.7
94,97.73913043478261,97.60458553791891,0.8260869565217391,0.7391304347826086,0.7,0.7
82,97.41666666666667,101.71294939824041,0.3333333333333333,0.2222222222222222,0.2,0.4
86,93.37037037037037,109.54982121053551,0.2222222222222222,0.3333333333333333,0.4,0.2
102,98.5,92.81631615270058,0.4090909090909091,0.44,0.4,0.4
104,90.56,94.87958532695374,0.44,0.4090909090909091,0.4,0.4
124,100.16,97.14909191720785,0.52,0.30434782608695654,0.5,0.3
107,98.95652173913044,105.25792354575248,0.30434782608695654,0.52,0.3,0.5
106,95.0,102.55100334448161,0.46153846153846156,0.46153846153846156,0.6,0.6
107,99.96153846153847,94.85202869213164,0.46153846153846156,0.46153846153846156,0.6,0.6
107,96.79166666666667,101.83802406832298,0.375,0.43478260869565216,0.5,0.5
113,98.26086956521739,102.10637559371575,0.43478260869565216,0.375,0.5,0.5
101,89.75,89.6456449197861,0.20833333333333334,0.2916666666666667,0.3,0.4
107,94.45833333333333,99.87674984114612,0.2916666666666667,0.20833333333333334,0.4,0.3
120,105.16,100.78072295351707,0.48,0.8461538461538461,0.4,0.9
109,108.3076923076923,105.00329704469506,0.8461538461538461,0.48,0.9,0.4
105,103.08333333333333,98.17727272727274,0.5833333333333334,0.4166666666666667,0.5,0.3
91,93.625,104.81016754527899,0.4166666666666667,0.5833333333333334,0.3,0.5
101,102.56521739130434,92.97090980489418,0.6086956521739131,0.7916666666666666,0.7,0.6
108,102.875,97.94533208020052,0.7916666666666666,0.6086956521739131,0.6,0.7
109,107.0,98.1111111111111,0.64,0.391304347826087,0.6,0.3
94,91.17391304347828,104.06162958164643,0.391304347826087,0.64,0.3,0.6
108,104.11538461538461,104.2777100137714,0.6538461538461539,0.4782608695652174,0.6,0.5
95,102.52173913043478,101.0243826761474,0.4782608695652174,0.6538461538461539,0.5,0.6
107,105.625,98.5648148148148,0.8333333333333334,0.375,0.9,0.2
95,91.29166666666669,100.45116843033507,0.375,0.8333333333333334,0.2,0.9
102,103.03846153846153,93.29207341269841,0.5384615384615384,0.8,0.5,0.7
104,103.08,100.87291375291376,0.8,0.5384615384615384,0.7,0.5
121,101.57692307692308,102.10637559371575,0.2692307692307692,0.36,0.1,0.5
120,97.2,110.44223535434473,0.36,0.2692307692307692,0.5,0.1
118,101.07692307692308,101.00891549116041,0.5384615384615384,0.25,0.6,0.4
85,93.10714285714286,105.25792354575248,0.25,0.5384615384615384,0.4,0.6
114,95.33333333333333,99.87674984114612,0.375,0.2,0.5,0.3
111,90.2,101.34137715831078,0.2,0.375,0.3,0.5
106,100.22222222222223,93.1695347622121,0.48148148148148145,0.46153846153846156,0.6,0.5
116,91.07692307692308,102.67874396135267,0.46153846153846156,0.48148148148148145,0.5,0.6
122,103.29166666666667,98.26787975399087,0.75,0.2916666666666667,0.7,0.3
103,99.29166666666667,97.60458553791891,0.2916666666666667,0.75,0.3,0.7
114,97.58333333333333,104.06162958164643,0.7916666666666666,0.6538461538461539,0.6,0.6
81,107.07692307692308,93.65309343434342,0.6538461538461539,0.7916666666666666,0.6,0.6
108,103.16,94.87958532695374,0.6,0.391304347826087,0.6,0.3
109,98.65217391304348,104.81016754527899,0.391304347826087,0.6,0.3,0.6
99,101.75,97.94533208020052,0.5833333333333334,0.5833333333333334,0.6,0.7
103,102.5,96.75510204081634,0.5833333333333334,0.5833333333333334,0.7,0.6
104,99.66666666666667,105.00329704469506,0.4583333333333333,0.5,0.5,0.5
91,105.73076923076923,110.62922239368997,0.5,0.4583333333333333,0.5,0.5
87,94.96,98.45018181818183,0.32,0.4,0.5,0.2
95,93.52,90.09981912299465,0.4,0.32,0.2,0.5
99,95.4074074074074,102.05310639880952,0.4444444444444444,0.4583333333333333,0.6,0.5
106,98.875,94.85202869213164,0.4583333333333333,0.4444444444444444,0.5,0.6
100,96.8,99.21716456383123,0.32,0.28,0.2,0.3
105,99.44,109.54982121053551,0.28,0.32,0.3,0.2
85,92.0,101.59481495698246,0.48148148148148145,0.2413793103448276,0.5,0.3
88,92.82758620689656,93.64473717842647,0.2413793103448276,0.48148148148148145,0.3,0.5
97,100.42857142857143,104.42971737491878,0.4642857142857143,0.6296296296296297,0.5,0.5
114,106.11111111111111,102.67874396135267,0.6296296296296297,0.4642857142857143,0.5,0.5
100,91.44000000000001,101.34137715831078,0.36,0.4,0.2,0.6
84,96.08,98.9022222222222,0.4,0.36,0.6,0.2
116,91.0,110.44223535434473,0.19230769230769232,0.2962962962962963,0.2,0.2
106,102.29629629629629,100.4199517703328,0.2962962962962963,0.19230769230769232,0.2,0.2
100,103.11538461538461,100.45116843033507,0.8076923076923077,0.84,0.7,0.9
113,105.68,93.62699366605617,0.84,0.8076923076923077,0.9,0.7
123,102.52,104.81016754527899,0.6,0.5769230769230769,0.7,0.5
108,103.34615384615384,97.9875187969925,0.5769230769230769,0.6,0.5,0.7
110,108.33333333333333,104.43280542986425,0.8148148148148148,0.4583333333333333,0.8,0.5
107,102.20833333333333,101.49254802931273,0.4583333333333333,0.8148148148148148,0.5,0.8
102,103.0,110.62922239368997,0.5185185185185185,0.48,0.5,0.5
83,99.84,100.87291375291376,0.48,0.5185185185185185,0.5,0.5
112,104.25925925925925,96.75510204081634,0.6666666666666666,0.56,0.6,0.5
91,101.64,101.0243826761474,0.56,0.6666666666666666,0.5,0.6
106,98.24,94.85202869213164,0.8,0.42857142857142855,0.6,0.5
79,95.53571428571429,93.65309343434342,0.42857142857142855,0.8,0.5,0.6
98,105.96153846153847,95.42626927166401,0.8461538461538461,0.4166666666666667,0.9,0.4
104,99.08333333333333,100.43381579839911,0.4166666666666667,0.8461538461538461,0.4,0.9
120,104.53571428571429,104.96613789489155,0.6785714285714286,0.48148148148148145,0.7,0.5
116,105.18518518518519,101.0243826761474,0.48148148148148145,0.6785714285714286,0.5,0.7
111,91.75,100.4199517703328,0.4642857142857143,0.2222222222222222,0.5,0.3
110,91.92592592592592,93.64473717842647,0.2222222222222222,0.4642857142857143,0.3,0.5
92,95.61538461538461,102.67874396135267,0.38461538461538464,0.4482758620689655,0.6,0.4
115,100.3103448275862,101.28978572914497,0.4482758620689655,0.38461538461538464,0.4,0.6
98,96.92307692307692,90.09981912299465,0.3076923076923077,0.3076923076923077,0.2,0.5
103,94.65384615384616,109.54982121053551,0.3076923076923077,0.3076923076923077,0.5,0.2
86,98.07692307692308,93.65309343434342,0.34615384615384615,0.8076923076923077,0.5,0.6
103,98.53846153846153,102.83305345549591,0.8076923076923077,0.34615384615384615,0.6,0.5
121,104.04,105.25792354575248,0.76,0.5555555555555556,0.7,0.6
119,101.70370370370371,97.60458553791891,0.5555555555555556,0.76,0.6,0.7
104,106.39285714285714,105.48386504360198,0.6428571428571429,0.5555555555555556,0.5,0.5
111,103.51851851851852,104.16437032581453,0.5555555555555556,0.6428571428571429,0.5,0.5
104,93.57692307692308,101.04165445841637,0.4230769230769231,0.26666666666666666,0.3,0.4
94,92.66666666666667,98.00979020979022,0.26666666666666666,0.4230769230769231,0.4,0.3
112,103.0,95.52921850079746,0.7777777777777778,0.44,0.7,0.5
99,99.28,93.62699366605617,0.44,0.7777777777777778,0.5,0.7
81,101.23076923076923,100.87291375291376,0.5384615384615384,0.5357142857142857,0.4,0.5
89,102.96428571428571,97.34144427001571,0.5357142857142857,0.5384615384615384,0.5,0.4
117,103.3076923076923,110.2973292247019,0.6153846153846154,0.46153846153846156,0.7,0.4
90,99.1923076923077,97.9875187969925,0.46153846153846156,0.6153846153846154,0.4,0.7
100,99.65384615384616,104.65549321266968,0.3076923076923077,0.44,0.4,0.4
113,102.4,99.2472736190685,0.44,0.3076923076923077,0.4,0.4
78,97.62962962962963,98.9022222222222,0.3333333333333333,0.38461538461538464,0.4,0.3
95,91.76923076923079,102.83305345549591,0.38461538461538464,0.3333333333333333,0.3,0.4
94,94.96296296296296,100.43381579839911,0.3333333333333333,0.8148148148148148,0.5,0.9
123,105.66666666666667,90.39241841473559,0.8148148148148148,0.3333333333333333,0.9,0.5
95,98.85185185185185,97.60458553791891,0.4444444444444444,0.7692307692307693,0.4,0.7
101,104.6923076923077,110.54557629045368,0.7692307692307693,0.4444444444444444,0.7,0.4
98,103.32142857142857,104.16437032581453,0.7857142857142857,0.6206896551724138,0.7,0.5
111,106.3103448275862,93.62699366605617,0.6206896551724138,0.7857142857142857,0.5,0.7
105,102.48275862068965,101.0243826761474,0.5517241379310345,0.6896551724137931,0.5,0.8
103,105.06896551724138,100.18764086488225,0.6896551724137931,0.5517241379310345,0.8,0.5
125,95.48148148148148,105.82014056197559,0.37037037037037035,0.5357142857142857,0.5,0.6
127,102.32142857142857,101.28978572914497,0.5357142857142857,0.37037037037037035,0.6,0.5
100,106.46666666666667,98.00979020979022,0.6333333333333333,0.4444444444444444,0.6,0.3
92,93.96296296296296,103.95889131495406,0.4444444444444444,0.6333333333333333,0.3,0.6
107,103.78571428571429,93.62699366605617,0.5714285714285714,0.7586206896551724,0.6,0.7
116,103.13793103448276,105.43086986347335,0.7586206896551724,0.5714285714285714,0.7,0.6
116,108.39285714285714,101.15690325360916,0.8214285714285714,0.6666666666666666,0.8,0.7
112,105.0,101.49254802931273,0.6666666666666666,0.8214285714285714,0.7,0.8
85,92.41379310344827,100.20403666274198,0.4827586206896552,0.8214285714285714,0.6,0.9
89,106.28571428571429,93.64473717842647,0.8214285714285714,0.4827586206896552,0.9,0.6
109,96.96296296296296,102.32278582930758,0.2962962962962963,0.4666666666666667,0.2,0.4
92,100.8,109.54982121053551,0.4666666666666667,0.2962962962962963,0.4,0.2
104,96.92857142857143,100.79781063567806,0.32142857142857145,0.21428571428571427,0.4,0.3
93,92.57142857142857,102.83305345549591,0.21428571428571427,0.32142857142857145,0.3,0.4
83,94.92857142857143,96.16271009692062,0.32142857142857145,0.4230769230769231,0.4,0.5
95,99.26923076923077,90.39241841473559,0.4230769230769231,0.32142857142857145,0.5,0.4
120,105.57142857142857,101.93098214285713,0.4642857142857143,0.48,0.4,0.5
98,99.16,105.50306154150256,0.48,0.4642857142857143,0.5,0.4
105,102.8076923076923,97.34144427001571,0.46153846153846156,0.5185185185185185,0.4,0.3
89,100.48148148148148,104.47643578141316,0.5185185185185185,0.46153846153846156,0.3,0.4
105,92.70967741935483,110.54557629045368,0.25806451612903225,0.42857142857142855,0.4,0.3
103,98.71428571428571,101.13708495975779,0.42857142857142855,0.25806451612903225,0.3,0.4
108,99.66666666666667,97.50811940688487,0.2962962962962963,0.7777777777777778,0.4,0.8
103,104.55555555555556,99.2472736190685,0.7777777777777778,0.2962962962962963,0.8,0.4
115,102.56666666666666,97.9875187969925,0.5666666666666667,0.6296296296296297,0.6,0.8
86,103.81481481481481,100.18764086488225,0.6296296296296297,0.5666666666666667,0.8,0.6
103,94.96551724137932,101.28978572914497,0.41379310344827586,0.35714285714285715,0.5,0.4
100,96.53571428571429,95.23644149585124,0.35714285714285715,0.41379310344827586,0.4,0.5
105,98.70370370370371,102.83305345549591,0.8148148148148148,0.3448275862068966,0.7,0.5
91,97.17241379310344,93.36964552936773,0.3448275862068966,0.8148148148148148,0.5,0.7
115,99.11111111111111,90.39241841473559,0.4444444444444444,0.3103448275862069,0.6,0.4
100,94.51724137931035,95.6752023155532,0.3103448275862069,0.4444444444444444,0.4,0.6
106,99.11538461538461,102.53817983481379,0.46153846153846156,0.45161290322580644,0.5,0.4
82,100.51612903225806,102.62594436813187,0.45161290322580644,0.46153846153846156,0.4,0.5
118,103.17241379310344,93.64473717842647,0.5517241379310345,0.4666666666666667,0.7,0.5
116,92.16666666666667,106.48151502535575,0.4666666666666667,0.5517241379310345,0.5,0.7
83,91.8888888888889,105.43086986347335,0.4074074074074074,0.5517241379310345,0.3,0.5
105,103.89655172413794,98.12806584362137,0.5517241379310345,0.4074074074074074,0.5,0.3
107,106.25806451612904,104.47643578141316,0.6451612903225806,0.48148148148148145,0.6,0.4
98,102.88888888888889,103.95889131495406,0.48148148148148145,0.6451612903225806,0.4,0.6
120,93.89285714285714,97.61496411751514,0.42857142857142855,0.5,0.3,0.3
99,100.07142857142857,98.08086913086915,0.5,0.42857142857142855,0.3,0.3
95,92.58620689655173,105.50306154150256,0.20689655172413793,0.4827586206896552,0.2,0.5
117,106.06896551724138,100.90823095858572,0.4827586206896552,0.20689655172413793,0.5,0.2
115,103.17857142857143,110.64072694883241,0.6071428571428571,0.2857142857142857,0.8,0.2
101,102.42857142857143,98.59510741138563,0.2857142857142857,0.6071428571428571,0.2,0.8
107,108.65517241379311,97.88282942806755,0.8275862068965517,0.75,0.8,0.8
108,104.5,101.49254802931273,0.75,0.8275862068965517,0.8,0.8
98,105.2258064516129,101.13708495975779,0.6451612903225806,0.28125,0.7,0.5
90,93.09375,101.63571282607337,0.28125,0.6451612903225806,0.5,0.7
104,96.65517241379311,100.18764086488225,0.3448275862068966,0.5806451612903226,0.4,0.6
108,102.96774193548387,101.34875863503652,0.5806451612903226,0.3448275862068966,0.6,0.4
109,97.39285714285714,106.48151502535575,0.32142857142857145,0.5666666666666667,0.3,0.7
102,103.66666666666667,109.54982121053551,0.5666666666666667,0.32142857142857145,0.7,0.3
117,105.6896551724138,103.95889131495406,0.8275862068965517,0.65625,0.9,0.6
86,106.28125,99.67975953644054,0.65625,0.8275862068965517,0.6,0.9
112,103.56666666666666,99.2472736190685,0.7666666666666667,0.32142857142857145,0.7,0.4
104,99.96428571428571,94.07276054385429,0.32142857142857145,0.7666666666666667,0.4,0.7
104,98.86206896551724,110.79104670921751,0.41379310344827586,0.27586206896551724,0.3,0.1
111,102.37931034482759,110.35434952181734,0.27586206896551724,0.41379310344827586,0.1,0.3
99,99.9375,102.62594436813187,0.4375,0.48148148148148145,0.4,0.5
106,99.37037037037037,102.64636171497585,0.48148148148148145,0.4375,0.5,0.4
91,94.79310344827586,98.12806584362137,0.4482758620689655,0.39285714285714285,0.4,0.3
95,91.57142857142858,98.08086913086915,0.39285714285714285,0.4482758620689655,0.3,0.4
98,106.43333333333334,104.68317420135757,0.5,0.5666666666666667,0.6,0.5
100,103.93333333333334,105.15295949011914,0.5666666666666667,0.5,0.5,0.6
110,102.71428571428571,101.49254802931273,0.4642857142857143,0.8,0.4,0.7
108,108.6,104.56656307493412,0.8,0.4642857142857143,0.7,0.4
94,100.03448275862068,98.19721462020316,0.4827586206896552,0.7586206896551724,0.3,0.8
97,104.62068965517241,98.38686190656635,0.7586206896551724,0.4827586206896552,0.8,0.3
83,93.0,94.43039081783206,0.2727272727272727,0.45161290322580644,0.5,0.4
80,92.93548387096774,101.04202177915907,0.45161290322580644,0.2727272727272727,0.4,0.5
88,105.0,98.59510741138563,0.65625,0.6206896551724138,0.7,0.8
107,103.58620689655173,101.63571282607337,0.6206896551724138,0.65625,0.8,0.7
91,95.23333333333333,106.56275647615072,0.43333333333333335,0.5483870967741935,0.5,0.6
92,103.61290322580645,95.23644149585124,0.5483870967741935,0.43333333333333335,0.6,0.5
91,98.92857142857143,101.34875863503652,0.8214285714285714,0.3333333333333333,0.7,0.3
76,96.9,93.36964552936773,0.3333333333333333,0.8214285714285714,0.3,0.7
81,97.79310344827586,100.30677708785468,0.3448275862068966,0.59375,0.4,0.7
94,103.125,109.54982121053551,0.59375,0.3448275862068966,0.7,0.4
106,105.66666666666667,99.68702280461787,0.6363636363636364,0.3103448275862069,0.6,0.3
110,100.10344827586206,104.35407642662211,0.3103448275862069,0.6363636363636364,0.3,0.6
113,103.83870967741936,102.90528500697938,0.7741935483870968,0.3333333333333333,0.7,0.4
92,96.96666666666667,94.07276054385429,0.3333333333333333,0.7741935483870968,0.4,0.7
79,91.68965517241381,95.6752023155532,0.41379310344827586,0.4642857142857143,0.4,0.7
85,99.67857142857143,97.8822704697034,0.4642857142857143,0.41379310344827586,0.7,0.4
94,106.06666666666666,101.76698196385102,0.8333333333333334,0.7741935483870968,0.9,0.7
98,108.58064516129032,99.67975953644054,0.7741935483870968,0.8333333333333334,0.7,0.9
79,99.03333333333333,100.90823095858572,0.4,0.2,0.3,0.2
94,92.66666666666667,110.35434952181734,0.2,0.4,0.2,0.3
78,99.60714285714286,104.46758793679766,0.5,0.5806451612903226,0.5,0.5
87,103.80645161290323,102.4964463549843,0.5806451612903226,0.5,0.5,0.5
95,99.17241379310344,93.36964552936773,0.4827586206896552,0.8275862068965517,0.7,0.7
82,98.65517241379311,95.10019533915481,0.8275862068965517,0.4827586206896552,0.7,0.7
124,106.16129032258064,104.56656307493412,0.4838709677419355,0.4827586206896552,0.5,0.5
112,102.96551724137932,105.15295949011914,0.4827586206896552,0.4838709677419355,0.5,0.5
102,99.83333333333333,110.56467848557692,0.4666666666666667,0.3,0.2,0.2
114,102.66666666666667,98.38686190656635,0.3,0.4666666666666667,0.2,0.2
112,104.48484848484848,94.0731911047748,0.6363636363636364,0.4375,0.6,0.4
85,92.53125,101.63571282607337,0.4375,0.6363636363636364,0.4,0.6
87,96.2258064516129,109.54982121053551,0.3225806451612903,0.3333333333333333,0.2,0.4
81,97.23333333333333,101.01492771132565,0.3333333333333333,0.3225806451612903,0.4,0.2
114,104.36666666666666,99.72172323670758,0.7666666666666667,0.6060606060606061,0.8,0.7
123,102.84848484848484,98.05730746619638,0.6060606060606061,0.7666666666666667,0.7,0.8
94,91.26666666666668,95.23644149585124,0.4,0.41935483870967744,0.4,0.4
82,95.09677419354838,97.8822704697034,0.41935483870967744,0.4,0.4,0.4
93,105.6774193548387,103.23092097449619,0.8064516129032258,0.3225806451612903,0.8,0.3
95,96.80645161290323,99.67975953644054,0.3225806451612903,0.8064516129032258,0.3,0.8
101,104.125,91.2126711342444,0.78125,0.3,0.7,0.4
105,94.7,94.07276054385429,0.3,0.78125,0.4,0.7
91,103.7,98.08086913086915,0.6333333333333333,0.43333333333333335,0.8,0.3
99,94.66666666666667,98.24193716433943,0.43333333333333335,0.6333333333333333,0.3,0.8
96,92.70588235294117,100.2015138308894,0.29411764705882354,0.22580645161290322,0.5,0.2
87,92.70967741935483,101.04202177915907,0.22580645161290322,0.29411764705882354,0.2,0.5
134,108.25,94.61642773796345,0.78125,0.42424242424242425,0.7,0.4
104,92.3030303030303,101.52426377748068,0.42424242424242425,0.78125,0.4,0.7
104,100.43333333333334,110.28839853442928,0.3333333333333333,0.3225806451612903,0.4,0.3
113,103.03225806451613,99.89745537779727,0.3225806451612903,0.3333333333333333,0.3,0.4
88,98.86206896551724,95.10019533915481,0.4827586206896552,0.5,0.5,0.8
101,99.03333333333333,102.4964463549843,0.5,0.4827586206896552,0.8,0.5
100,103.25,100.141672553275,0.5625,0.6176470588235294,0.7,0.8
101,103.44117647058823,106.07642033627101,0.6176470588235294,0.5625,0.8,0.7
92,94.6875,105.21434430576964,0.40625,0.4666666666666667,0.3,0.4
95,103.26666666666667,95.19780269910589,0.4666666666666667,0.40625,0.4,0.3
102,105.67647058823529,91.52839142023652,0.6176470588235294,0.3225806451612903,0.5,0.4
100,95.03225806451613,104.35407642662211,0.3225806451612903,0.6176470588235294,0.4,0.5
112,103.28125,101.63571282607337,0.59375,0.6470588235294118,0.6,0.7
119,104.70588235294117,103.64047581377272,0.6470588235294118,0.59375,0.7,0.6
111,99.90322580645162,97.8524539976153,0.45161290322580644,0.45161290322580644,0.1,0.4
108,94.80645161290323,98.38686190656635,0.45161290322580644,0.45161290322580644,0.4,0.1
110,98.38709677419355,101.04202177915907,0.3870967741935484,0.3142857142857143,0.3,0.5
99,92.8,110.35434952181734,0.3142857142857143,0.3870967741935484,0.5,0.3
99,98.1,104.78807513461578,0.8,0.4838709677419355,0.7,0.4
82,103.0,93.42399067838882,0.4838709677419355,0.8,0.4,0.7
94,96.70967741935483,98.05730746619638,0.3225806451612903,0.7419354838709677,0.3,0.8
110,104.6774193548387,108.82240762309888,0.7419354838709677,0.3225806451612903,0.8,0.3
89,96.75,101.01492771132565,0.34375,0.34375,0.3,0.2
82,95.9375,102.91120469404318,0.34375,0.34375,0.2,0.3
91,91.35483870967744,106.07642033627101,0.41935483870967744,0.5454545454545454,0.4,0.6
84,103.15151515151516,97.8822704697034,0.5454545454545454,0.41935483870967744,0.6,0.4
111,106.71875,99.67975953644054,0.5,0.78125,0.5,0.7
115,105.28125,105.15295949011914,0.78125,0.5,0.7,0.5
116,104.03030303030303,101.93183531675699,0.7575757575757576,0.6571428571428571,0.6,0.7
92,105.11428571428571,94.07276054385429,0.6571428571428571,0.7575757575757576,0.7,0.6
116,103.29032258064517,100.0702165236741,0.6129032258064516,0.21875,0.7,0.2
100,92.53125,98.24193716433943,0.21875,0.6129032258064516,0.2,0.7
99,109.03030303030303,110.09188608022836,0.7878787878787878,0.34375,0.7,0.4
101,103.34375,101.52426377748068,0.34375,0.7878787878787878,0.4,0.7
103,100.54838709677419,95.77476809861159,0.3225806451612903,0.4117647058823529,0.4,0.4
113,92.6470588235294,99.89745537779727,0.4117647058823529,0.3225806451612903,0.4,0.4
84,99.9090909090909,98.26331481018983,0.42424242424242425,0.4375,0.4,0.4
112,95.21875,102.64636171497585,0.4375,0.42424242424242425,0.4,0.4
78,95.51515151515152,93.42399067838882,0.3333333333333333,0.8064516129032258,0.2,0.7
82,98.12903225806451,100.65083899280063,0.8064516129032258,0.3333333333333333,0.7,0.2
102,104.84375,94.87115677982723,0.75,0.5161290322580645,0.8,0.8
97,99.09677419354838,97.93051660787773,0.5161290322580645,0.75,0.8,0.8
96,98.5,100.13762476603857,0.4666666666666667,0.6285714285714286,0.5,0.9
112,103.37142857142857,102.4964463549843,0.6285714285714286,0.4666666666666667,0.9,0.5
119,105.57575757575758,95.19780269910589,0.7878787878787878,0.3939393939393939,0.7,0.3
96,94.60606060606061,100.02279712624538,0.3939393939393939,0.7878787878787878,0.3,0.7
80,103.54545454545455,91.85562918835413,0.5757575757575758,0.3125,0.6,0.4
92,95.1875,103.64047581377272,0.3125,0.5757575757575758,0.4,0.6
115,98.75,98.38686190656635,0.40625,0.46875,0.3,0.2
137,100.25,110.35434952181734,0.46875,0.40625,0.2,0.3
95,103.27272727272727,105.15295949011914,0.36363636363636365,0.48484848484848486,0.5,0.5
126,106.84848484848484,109.75576832022145,0.48484848484848486,0.36363636363636365,0.5,0.5
91,96.51515151515152,105.63299620873363,0.36363636363636365,0.5294117647058824,0.4,0.6
86,102.58823529411765,102.91120469404318,0.5294117647058824,0.36363636363636365,0.6,0.4
101,104.75,108.82240762309888,0.6388888888888888,0.3125,0.6,0.3
81,96.625,102.3226176690693,0.3125,0.6388888888888888,0.3,0.6
83,93.22857142857143,102.4964463549843,0.42857142857142855,0.45161290322580644,0.4,0.5
97,98.41935483870968,95.9812032957941,0.45161290322580644,0.42857142857142855,0.5,0.4
111,95.0,109.75576832022145,0.3235294117647059,0.35294117647058826,0.2,0.5
93,103.02941176470588,100.65083899280063,0.35294117647058826,0.3235294117647059,0.5,0.2
86,97.625,95.09393313045763,0.8125,0.5,0.7,0.7
79,99.03125,92.94199096968917,0.5,0.8125,0.7,0.7
107,104.75757575757575,104.60719778665904,0.7575757575757576,0.46875,0.8,0.4
88,102.34375,97.93051660787773,0.46875,0.7575757575757576,0.4,0.8
89,95.0909090909091,102.64636171497585,0.3333333333333333,0.4117647058823529,0.4,0.3
85,99.44117647058823,91.49636769779795,0.4117647058823529,0.3333333333333333,0.3,0.4
92,91.34375000000001,98.24193716433943,0.4375,0.625,0.5,0.7
87,103.6875,97.8822704697034,0.625,0.4375,0.7,0.5
108,95.72727272727273,94.07276054385429,0.45454545454545453,0.7647058823529411,0.5,0.7
110,104.38235294117646,97.83109314927498,0.7647058823529411,0.45454545454545453,0.7,0.5
80,92.75757575757575,100.02269074475971,0.21212121212121213,0.6388888888888888,0.2,0.9
101,103.61111111111111,100.55293723507792,0.6388888888888888,0.21212121212121213,0.9,0.2
110,102.8529411764706,110.35434952181734,0.5588235294117647,0.3939393939393939,0.5,0.3
97,99.24242424242425,103.64047581377272,0.3939393939393939,0.5588235294117647,0.3,0.5
129,101.36363636363636,95.89786732560277,0.48484848484848486,0.38235294117647056,0.2,0.3
98,94.6470588235294,98.8902903336401,0.38235294117647056,0.48484848484848486,0.3,0.2
112,92.97222222222223,100.02279712624538,0.3055555555555556,0.7941176470588235,0.5,0.7
101,105.97058823529412,101.29085450751576,0.7941176470588235,0.3055555555555556,0.7,0.5
123,100.625,101.52426377748068,0.3125,0.7647058823529411,0.3,0.6
119,108.73529411764706,99.89745537779727,0.7647058823529411,0.3125,0.6,0.3
112,104.54285714285714,103.64047581377272,0.7714285714285715,0.5714285714285714,0.7,0.5
90,103.05714285714286,94.47068167117273,0.5714285714285714,0.7714285714285715,0.5,0.7
112,98.42424242424242,102.25646566597655,0.48484848484848486,0.4,0.7,0.3
91,99.02857142857142,94.81835939923164,0.4,0.48484848484848486,0.3,0.7
97,102.11428571428571,92.94199096968917,0.5142857142857142,0.8181818181818182,0.5,0.8
87,97.27272727272727,105.2149106027698,0.8181818181818182,0.5142857142857142,0.8,0.5
102,96.3529411764706,99.48153694084729,0.38235294117647056,0.6486486486486487,0.4,1
98,103.54054054054055,102.91120469404318,0.6486486486486487,0.38235294117647056,1,0.4
113,105.57142857142857,110.343927477058,0.6285714285714286,0.38235294117647056,0.6,0.2
99,99.17647058823529,104.35407642662211,0.38235294117647056,0.6285714285714286,0.2,0.6
96,101.9090909090909,101.88718240639105,0.45454545454545453,0.46875,0.4,0.6
102,98.375,104.67970694463907,0.46875,0.45454545454545453,0.6,0.4
103,107.41176470588235,98.05278755329884,0.5,0.6060606060606061,0.5,0.6
104,103.18181818181819,104.8543430345274,0.6060606060606061,0.5,0.6,0.5
110,109.02857142857142,108.58536496785347,0.7428571428571429,0.30303030303030304,0.5,0.3
94,96.15151515151516,102.13785624098124,0.30303030303030304,0.7428571428571429,0.3,0.5
111,104.64864864864865,96.84364254487127,0.6486486486486487,0.37142857142857144,0.6,0.2
105,94.74285714285715,102.3226176690693,0.37142857142857144,0.6486486486486487,0.2,0.6
102,94.91176470588235,97.93051660787773,0.35294117647058826,0.7647058823529411,0.5,0.8
92,104.82352941176471,91.49636769779795,0.7647058823529411,0.35294117647058826,0.8,0.5
101,102.17647058823529,100.36500292263837,0.5,0.7714285714285715,0.3,0.6
88,105.82857142857142,98.8902903336401,0.7714285714285715,0.5,0.6,0.3
93,96.97058823529412,101.7087829395307,0.7941176470588235,0.48484848484848486,0.8,0.6
66,98.48484848484848,93.06134417646301,0.48484848484848486,0.7941176470588235,0.6,0.8
104,102.74285714285715,102.5271193974772,0.34285714285714286,0.3888888888888889,0.5,0.2
114,98.80555555555556,109.79131779678656,0.3888888888888889,0.34285714285714286,0.2,0.5
83,101.97222222222223,104.35407642662211,0.5277777777777778,0.6388888888888888,0.5,0.6
80,105.77777777777777,105.2149106027698,0.6388888888888888,0.5277777777777778,0.6,0.5
104,96.51428571428572,98.04678756193837,0.4,0.7428571428571429,0.5,0.7
95,104.45714285714286,102.91120469404318,0.7428571428571429,0.4,0.7,0.5
104,96.08823529411765,98.19829380173123,0.4411764705882353,0.6176470588235294,0.5,0.7
99,103.20588235294117,97.83109314927498,0.6176470588235294,0.4411764705882353,0.7,0.5
119,107.28571428571429,95.9812032957941,0.4857142857142857,0.4166666666666667,0.5,0.3
92,92.94444444444444,104.8543430345274,0.4166666666666667,0.4857142857142857,0.3,0.5
90,101.73529411764706,103.8726848189457,0.4411764705882353,0.5555555555555556,0.4,0.5
107,102.69444444444446,104.67970694463907,0.5555555555555556,0.4411764705882353,0.5,0.4
72,92.38235294117646,97.8822704697034,0.20588235294117646,0.45454545454545453,0.2,0.6
81,91.36363636363637,100.55293723507792,0.45454545454545453,0.20588235294117646,0.6,0.2
102,93.48648648648648,100.65083899280063,0.32432432432432434,0.34285714285714286,0.6,0.2
113,95.45714285714286,101.29085450751576,0.34285714285714286,0.32432432432432434,0.2,0.6
103,101.3030303030303,108.62697188056366,0.3333333333333333,0.29411764705882354,0.4,0.2
83,96.08823529411765,99.89745537779727,0.29411764705882354,0.3333333333333333,0.2,0.4
99,103.39473684210527,97.23687469640262,0.631578947368421,0.3611111111111111,0.9,0.1
97,95.02777777777777,99.5478122845092,0.3611111111111111,0.631578947368421,0.1,0.9
123,104.8157894736842,110.41981526342778,0.6578947368421053,0.37142857142857144,0.6,0.1
87,99.17142857142858,102.3226176690693,0.37142857142857144,0.6578947368421053,0.1,0.6
96,98.82352941176471,102.91120469404318,0.5,0.4166666666666667,0.7,0.6
80,96.72222222222223,94.81835939923164,0.4166666666666667,0.5,0.6,0.7
107,97.52941176470588,103.7769392259026,0.47058823529411764,0.6216216216216216,0.5,0.6
114,105.08108108108108,101.45264226483863,0.6216216216216216,0.47058823529411764,0.6,0.5
110,99.21621621621621,98.36405683596747,0.40540540540540543,0.6,0.2,0.6
108,103.08571428571429,102.56692698132916,0.6,0.40540540540540543,0.6,0.2
92,102.77777777777777,91.49636769779795,0.3333333333333333,0.37142857142857144,0.5,0.5
102,95.11428571428571,109.79131779678656,0.37142857142857144,0.3333333333333333,0.5,0.5
103,91.05882352941178,96.60333293644831,0.47058823529411764,0.40540540540540543,0.7,0.2
97,92.91891891891892,97.12102722059448,0.40540540540540543,0.47058823529411764,0.2,0.7
101,105.33333333333333,100.55293723507792,0.75,0.2,0.5,0.2
85,91.8,100.38264173034287,0.2,0.75,0.2,0.5
110,102.81081081081082,104.67970694463907,0.5675675675675675,0.42857142857142855,0.6,0.4
107,101.4,103.49774739140662,0.42857142857142855,0.5675675675675675,0.4,0.6
120,102.14285714285714,108.4662012554047,0.5142857142857142,0.2857142857142857,0.4,0.2
94,95.71428571428571,98.8902903336401,0.2857142857142857,0.5142857142857142,0.2,0.4
112,109.05555555555556,97.28452673163498,0.75,0.35135135135135137,0.5,0.1
104,95.08108108108108,102.13785624098124,0.35135135135135137,0.75,0.1,0.5
108,96.31428571428572,105.2149106027698,0.45714285714285713,0.5405405405405406,0.6,0.5
101,101.45945945945945,97.83109314927498,0.5405405405405406,0.45714285714285713,0.5,0.6
124,101.3529411764706,100.68831568744505,0.35294117647058826,0.3611111111111111,0.5,0.3
80,95.94444444444444,99.89745537779727,0.3611111111111111,0.35294117647058826,0.3,0.5
104,104.75,104.8543430345274,0.7777777777777778,0.5,0.7,0.5
86,107.61111111111111,94.47068167117273,0.5,0.7777777777777778,0.5,0.7
116,98.74285714285715,100.56535564521465,0.5142857142857142,0.19444444444444445,0.7,0.2
94,91.61111111111111,94.81835939923164,0.19444444444444445,0.5142857142857142,0.2,0.7
92,95.3157894736842,103.86175661469463,0.34210526315789475,0.631578947368421,0.1,0.6
104,105.3157894736842,97.67177602817091,0.631578947368421,0.34210526315789475,0.6,0.1
98,95.30555555555556,98.68727747941281,0.3888888888888889,0.5833333333333334,0.6,0.5
96,103.22222222222223,91.51035748397024,0.5833333333333334,0.3888888888888889,0.5,0.6
88,91.40000000000002,101.45264226483863,0.4857142857142857,0.45714285714285713,0.8,0.4
102,97.8,97.12102722059448,0.45714285714285713,0.4857142857142857,0.4,0.8
95,101.55555555555556,94.47068167117273,0.4166666666666667,0.7837837837837838,0.3,0.8
101,104.72972972972973,104.82749286284353,0.7837837837837838,0.4166666666666667,0.8,0.3
107,103.00000000000001,108.78658455386568,0.5789473684210527,0.2777777777777778,0.6,0.2
88,95.66666666666667,103.49774739140662,0.2777777777777778,0.5789473684210527,0.2,0.6
118,93.71052631578948,98.8902903336401,0.3157894736842105,0.5277777777777778,0.5,0.5
103,102.63888888888889,101.29085450751576,0.5277777777777778,0.3157894736842105,0.5,0.5
108,93.02631578947368,91.51035748397024,0.39473684210526316,0.40540540540540543,0.2,0.6
98,95.37837837837837,96.77166628022599,0.40540540540540543,0.39473684210526316,0.6,0.2
116,96.85714285714286,99.89745537779727,0.8,0.37142857142857144,0.8,0.6
92,102.0,93.06134417646301,0.37142857142857144,0.8,0.6,0.8
90,96.63888888888889,100.38264173034287,0.4722222222222222,0.7567567567567568,0.6,0.6
87,105.21621621621621,97.83109314927498,0.7567567567567568,0.4722222222222222,0.6,0.6
118,98.83333333333333,101.318361209406,0.3611111111111111,0.35135135135135137,0.1,0.3
120,95.51351351351352,110.76926483944368,0.35135135135135137,0.3611111111111111,0.3,0.1
125,95.45945945945945,97.12102722059448,0.2702702702702703,0.4722222222222222,0.2,0.7
128,91.30555555555559,108.73829848484228,0.4722222222222222,0.2702702702702703,0.7,0.2
95,102.48648648648648,96.77166628022599,0.32432432432432434,0.41025641025641024,0.4,0.2
92,93.41025641025641,109.79131779678656,0.41025641025641024,0.32432432432432434,0.2,0.4
114,97.91666666666667,98.21215457410675,0.4722222222222222,0.7222222222222222,0.5,0.6
97,104.19444444444444,101.078957757482,0.7222222222222222,0.4722222222222222,0.6,0.5
88,95.23076923076923,94.81835939923164,0.3333333333333333,0.5277777777777778,0.1,0.8
83,99.22222222222223,97.67177602817091,0.5277777777777778,0.3333333333333333,0.8,0.1
77,91.67567567567568,97.83109314927498,0.1891891891891892,0.4864864864864865,0.1,0.6
82,96.45945945945945,100.98250819534398,0.4864864864864865,0.1891891891891892,0.6,0.1
108,107.02702702702703,100.34474828396957,0.4864864864864865,0.3611111111111111,0.5,0.5
111,101.72222222222223,104.83125268224288,0.3611111111111111,0.4864864864864865,0.5,0.5
100,101.37837837837837,103.55760900918965,0.40540540540540543,0.6410256410256411,0.2,0.7
103,105.28205128205128,104.82749286284353,0.6410256410256411,0.40540540540540543,0.7,0.2
109,104.63157894736842,101.29085450751576,0.7894736842105263,0.3333333333333333,0.8,0.6
105,94.33333333333333,94.48461110087871,0.3333333333333333,0.7894736842105263,0.6,0.8
121,103.02702702702703,110.76926483944368,0.5675675675675675,0.35135135135135137,0.4,0.1
114,99.35135135135135,98.66870241240166,0.35135135135135137,0.5675675675675675,0.1,0.4
108,109.13513513513513,101.75735170389532,0.7567567567567568,0.3684210526315789,0.6,0.4
96,96.15789473684211,102.13785624098124,0.3684210526315789,0.7567567567567568,0.4,0.6
116,103.2820512820513,99.40676897327144,0.6410256410256411,0.5135135135135135,0.9,0.5
123,102.64864864864865,99.5478122845092,0.5135135135135135,0.6410256410256411,0.5,0.9
129,105.28205128205128,103.49774739140662,0.6666666666666666,0.5897435897435898,0.6,0.7
127,103.10256410256412,102.3226176690693,0.5897435897435898,0.6666666666666666,0.7,0.6
110,101.44736842105262,102.72441537798795,0.5263157894736842,0.40540540540540543,0.5,0.6
127,96.27027027027027,105.28820242901271,0.40540540540540543,0.5263157894736842,0.6,0.5
117,97.38888888888889,91.9442954449184,0.8055555555555556,0.39473684210526316,0.8,0.6
89,95.44736842105262,93.06134417646301,0.39473684210526316,0.8055555555555556,0.6,0.8
92,105.225,100.10941431638648,0.65,0.7368421052631579,0.7,0.5
104,104.73684210526316,103.4686687839599,0.7368421052631579,0.65,0.5,0.7
95,95.28205128205127,102.3226176690693,0.38461538461538464,0.675,0.6,0.7
109,105.875,92.5867494078692,0.675,0.38461538461538464,0.7,0.6
101,96.23684210526315,96.72737462322034,0.2631578947368421,0.4,0.1,0.2
111,93.375,108.73829848484228,0.4,0.2631578947368421,0.2,0.1
86,102.28947368421052,98.6388530991309,0.34210526315789475,0.7027027027027027,0.5,0.5
101,104.0,109.79131779678656,0.7027027027027027,0.34210526315789475,0.5,0.5
94,98.78378378378379,104.83125268224288,0.5135135135135135,0.47368421052631576,0.7,0.5
89,107.05263157894737,94.63407941546862,0.47368421052631576,0.5135135135135135,0.5,0.7
96,98.35135135135135,97.87451297138922,0.4864864864864865,0.4864864864864865,0.5,0.7
93,92.29729729729732,101.078957757482,0.4864864864864865,0.4864864864864865,0.7,0.5
104,95.05,111.0384947120899,0.35,0.34210526315789475,0.1,0.1
107,99.73684210526316,97.67177602817091,0.34210526315789475,0.35,0.1,0.1
89,99.5,101.48358314482786,0.42105263157894735,0.325,0.3,0.5
110,94.6,102.56692698132916,0.325,0.42105263157894735,0.5,0.3
91,96.07894736842104,100.55164697899741,0.5,0.3783783783783784,0.7,0.6
90,101.97297297297297,97.28290648745195,0.3783783783783784,0.5,0.6,0.7
100,104.74358974358974,102.13785624098124,0.7948717948717948,0.7631578947368421,0.9,0.6
109,109.10526315789474,94.48461110087871,0.7631578947368421,0.7948717948717948,0.6,0.9
109,103.1842105263158,101.91741960892364,0.5263157894736842,0.358974358974359,0.6,0.4
117,96.15384615384616,99.84343294765904,0.358974358974359,0.5263157894736842,0.4,0.6
107,103.5,104.13530370662144,0.5789473684210527,0.575,0.5,0.6
110,103.7,98.66870241240166,0.575,0.5789473684210527,0.6,0.5
127,104.71794871794873,99.5478122845092,0.7435897435897436,0.625,0.5,0.8
121,103.6,99.9014806159663,0.625,0.7435897435897436,0.8,0.5
106,97.91891891891892,102.1440172381164,0.8108108108108109,0.6829268292682927,0.8,0.8
92,105.95121951219512,93.06134417646301,0.6829268292682927,0.8108108108108109,0.8,0.8
98,98.28947368421052,102.56692698132916,0.5,0.41025641025641024,0.5,0.3
104,99.23076923076923,101.078957757482,0.41025641025641024,0.5,0.3,0.5
96,93.8048780487805,98.30625170178536,0.4146341463414634,0.7105263157894737,0.3,0.6
104,103.92105263157895,96.83158499826375,0.7105263157894737,0.4146341463414634,0.6,0.3
103,92.31578947368423,109.79131779678656,0.47368421052631576,0.3333333333333333,0.7,0.5
78,101.87179487179488,97.82518368266845,0.3333333333333333,0.47368421052631576,0.5,0.7
114,104.90243902439025,100.98250819534398,0.6341463414634146,0.18421052631578946,0.6,0.1
104,91.28947368421052,103.4686687839599,0.18421052631578946,0.6341463414634146,0.1,0.6
98,106.58974358974359,101.17910550714913,0.46153846153846156,0.34146341463414637,0.4,0.6
72,94.97560975609755,104.55352825449306,0.34146341463414637,0.46153846153846156,0.6,0.4
87,101.34210526315788,100.21737783854556,0.39473684210526316,0.6097560975609756,0.2,0.7
97,104.02439024390245,104.82749286284353,0.6097560975609756,0.39473684210526316,0.7,0.2
111,103.85365853658537,102.0830394142894,0.5853658536585366,0.7692307692307693,0.6,0.6
127,109.1025641025641,104.20517434792336,0.7692307692307693,0.5853658536585366,0.6,0.6
106,98.65789473684211,110.85802048870298,0.5263157894736842,0.358974358974359,0.7,0.2
112,99.92307692307693,94.63407941546862,0.358974358974359,0.5263157894736842,0.2,0.7
93,96.35897435897435,97.67177602817091,0.2564102564102564,0.34146341463414637,0,0.1
91,95.26829268292683,108.73829848484228,0.34146341463414637,0.2564102564102564,0.1,0
108,105.275,100.30028784797116,0.75,0.3684210526315789,0.5,0.5
93,101.65789473684211,99.9014806159663,0.3684210526315789,0.75,0.5,0.5
110,104.625,101.31629003648901,0.775,0.1794871794871795,0.8,0.1
82,91.61538461538461,94.48461110087871,0.1794871794871795,0.775,0.1,0.8
117,103.58974358974359,99.84343294765904,0.5641025641025641,0.5128205128205128,0.4,0.6
103,103.33333333333333,98.66870241240166,0.5128205128205128,0.5641025641025641,0.6,0.4
97,96.67500000000001,104.20517434792336,0.375,0.5714285714285714,0.5,0.5
102,104.02380952380952,102.09448411870055,0.5714285714285714,0.375,0.5,0.5
103,99.35,102.23582635149458,0.425,0.6666666666666666,0.3,0.7
112,105.61904761904762,102.45275380679593,0.6666666666666666,0.425,0.7,0.3
100,93.85714285714286,94.63407941546862,0.40476190476190477,0.5128205128205128,0.3,0.6
95,98.84615384615384,96.83158499826375,0.5128205128205128,0.40476190476190477,0.6,0.3
107,98.28205128205128,109.62153485186688,0.48717948717948717,0.325,0.5,0.4
99,101.275,101.078957757482,0.325,0.48717948717948717,0.4,0.5
80,95.27499999999999,102.9158781311988,0.375,0.42105263157894735,0.6,0.7
103,97.07894736842105,92.5867494078692,0.42105263157894735,0.375,0.7,0.6
92,95.94871794871794,104.82749286284353,0.5128205128205128,0.38461538461538464,0.7,0.1
95,100.97435897435895,97.28290648745195,0.38461538461538464,0.5128205128205128,0.1,0.7
121,101.66666666666666,98.24711704276521,0.5128205128205128,0.717948717948718,0.4,0.6
114,103.92307692307692,105.28820242901271,0.717948717948718,0.5128205128205128,0.6,0.4
102,92.58974358974362,110.73656997648541,0.48717948717948717,0.375,0.7,0.3
100,100.22500000000001,97.82518368266845,0.375,0.48717948717948717,0.3,0.7
126,105.11904761904762,102.30596342893217,0.6428571428571429,0.775,0.6,0.7
113,109.55,103.4686687839599,0.775,0.6428571428571429,0.7,0.6
94,103.85714285714286,93.06134417646301,0.6190476190476191,0.8157894736842105,0.7,0.8
102,98.13157894736842,99.90267836619924,0.8157894736842105,0.6190476190476191,0.8,0.7
101,97.23076923076923,108.73829848484228,0.4358974358974359,0.275,0.7,0.1
90,96.27499999999999,102.32829151245011,0.275,0.4358974358974359,0.1,0.7
93,104.175,97.56054326559541,0.7,0.3333333333333333,0.5,0.1
86,95.16666666666667,98.81593911669609,0.3333333333333333,0.7,0.1,0.5
97,100.82499999999997,100.49771636468985,0.4,0.358974358974359,0.2,0.5
114,101.43589743589743,104.50680554127243,0.358974358974359,0.4,0.5,0.2
105,105.34146341463415,102.88386675993384,0.7560975609756098,0.7560975609756098,0.6,0.7
97,109.63414634146342,99.9014806159663,0.7560975609756098,0.7560975609756098,0.7,0.6
97,94.42857142857142,104.55352825449306,0.3333333333333333,0.475,0.5,0.4
112,106.375,101.10341251888369,0.475,0.3333333333333333,0.4,0.5
95,94.0,102.25359783169239,0.4186046511627907,0.6744186046511628,0.4,0.8
91,105.76744186046511,96.83158499826375,0.6744186046511628,0.4186046511627907,0.8,0.4
87,96.6829268292683,97.82518368266845,0.36585365853658536,0.5,0.5,0.8
98,92.82500000000003,102.09448411870055,0.5,0.36585365853658536,0.8,0.5
109,96.12195121951218,105.28820242901271,0.2682926829268293,0.525,0.1,0.4
112,102.14999999999999,108.54955949740709,0.525,0.2682926829268293,0.4,0.1
93,98.74999999999999,104.03761215378562,0.5,0.5813953488372093,0.5,0.6
85,103.97674418604652,94.76822743008191,0.5813953488372093,0.5,0.6,0.5
111,98.5,97.4544841198839,0.5,0.32558139534883723,0.6,0.1
113,94.95348837209302,101.078957757482,0.32558139534883723,0.5,0.1,0.6
106,94.90243902439023,109.55759497743111,0.36585365853658536,0.3170731707317073,0.5,0.3
110,101.21951219512195,92.5867494078692,0.3170731707317073,0.36585365853658536,0.3,0.5
119,105.6046511627907,100.4102734555726,0.6511627906976745,0.375,0.7,0.5
98,101.75,103.4686687839599,0.375,0.6511627906976745,0.5,0.7
104,91.375,102.45275380679593,0.175,0.4146341463414634,0.1,0.3
101,99.4390243902439,101.53338278557678,0.4146341463414634,0.175,0.3,0.1
105,104.7560975609756,99.9014806159663,0.7804878048780488,0.7619047619047619,0.8,0.7
111,105.33333333333333,94.48461110087871,0.7619047619047619,0.7804878048780488,0.7,0.8
124,103.925,93.08541227450242,0.575,0.8205128205128205,0.4,0.8
100,98.23076923076923,98.66870241240166,0.8205128205128205,0.575,0.8,0.4
109,103.90243902439025,110.52348290388821,0.7073170731707317,0.36585365853658536,0.6,0.3
102,100.21951219512195,98.81593911669609,0.36585365853658536,0.7073170731707317,0.3,0.6
110,109.33333333333333,100.27234712396756,0.7380952380952381,0.5,0.6,0.6
105,103.325,102.93425088469732,0.5,0.7380952380952381,0.6,0.6
114,96.42857142857142,110.48720950141467,0.2619047619047619,0.35714285714285715,0.1,0.2
105,100.26190476190476,108.54955949740709,0.35714285714285715,0.2619047619047619,0.2,0.1
95,101.42857142857143,94.76822743008191,0.3333333333333333,0.5121951219512195,0.3,0.5
104,98.60975609756096,109.47289033511132,0.5121951219512195,0.3333333333333333,0.5,0.3
79,102.39024390243902,94.48461110087871,0.5365853658536586,0.7619047619047619,0.5,0.7
105,104.76190476190476,105.37873407708558,0.7619047619047619,0.5365853658536586,0.7,0.5
83,95.36363636363636,100.02005083419964,0.3409090909090909,0.7674418604651163,0.2,0.7
101,105.46511627906976,97.7623367535229,0.7674418604651163,0.3409090909090909,0.7,0.2
107,97.325,103.78675733210866,0.45,0.5681818181818182,0.8,0.6
106,103.54545454545455,102.32829151245011,0.5681818181818182,0.45,0.6,0.8
93,96.45238095238095,101.53338278557678,0.35714285714285715,0.1951219512195122,0.4,0.1
78,91.6829268292683,102.09448411870055,0.1951219512195122,0.35714285714285715,0.1,0.4
101,99.47619047619048,104.50680554127243,0.40476190476190477,0.3902439024390244,0.3,0.1
103,100.73170731707314,102.48959300187222,0.3902439024390244,0.40476190476190477,0.1,0.3
125,95.16666666666666,96.83158499826375,0.35714285714285715,0.4318181818181818,0.5,0.5
96,94.02272727272727,92.5867494078692,0.4318181818181818,0.35714285714285715,0.5,0.5
95,92.95121951219515,102.08874333551756,0.5121951219512195,0.6590909090909091,0.8,0.7
112,105.43181818181819,97.56115481235946,0.6590909090909091,0.5121951219512195,0.7,0.8
87,105.9090909090909,97.28290648745195,0.6590909090909091,0.5,0.8,0.7
88,95.85,103.4686687839599,0.5,0.6590909090909091,0.7,0.8
95,104.41463414634147,101.078957757482,0.5853658536585366,0.4878048780487805,0.5,0.6
101,98.8048780487805,98.66870241240166,0.4878048780487805,0.5853658536585366,0.6,0.5
111,101.65853658536585,93.85827696763985,0.36585365853658536,0.8,0.5,0.8
116,98.275,100.86368142007082,0.8,0.36585365853658536,0.8,0.5
120,103.62790697674419,104.36929585804201,0.6046511627906976,0.4878048780487805,0.6,0.5
121,106.51219512195122,99.90267836619924,0.4878048780487805,0.6046511627906976,0.5,0.6
87,94.06666666666666,97.56115481235946,0.4222222222222222,0.5,0.4,0.7
89,93.00000000000003,97.4575497760801,0.5,0.4222222222222222,0.7,0.4
118,98.73809523809524,101.93121570583939,0.5238095238095238,0.6666666666666666,0.6,0.7
126,105.57777777777778,94.77374582460376,0.6666666666666666,0.5238095238095238,0.7,0.6
91,101.27906976744185,99.63323149705874,0.32558139534883723,0.7727272727272727,0.2,0.7
103,105.36363636363636,109.47289033511132,0.7727272727272727,0.32558139534883723,0.7,0.2
99,95.65853658536585,103.4686687839599,0.5121951219512195,0.6444444444444445,0.7,0.7
81,105.4888888888889,97.03210389019702,0.6444444444444445,0.5121951219512195,0.7,0.7
87,91.35714285714286,105.37873407708558,0.19047619047619047,0.5238095238095238,0.1,0.4
112,101.83333333333333,101.3302070049678,0.5238095238095238,0.19047619047619047,0.4,0.1
109,103.36585365853658,94.27636777330719,0.4878048780487805,0.8048780487804879,0.6,0.8
96,98.70731707317073,100.50960695021227,0.8048780487804879,0.4878048780487805,0.8,0.6
104,94.48837209302324,100.93422066801816,0.32558139534883723,0.5,0.5,0.6
101,98.85714285714286,101.10341251888369,0.5,0.32558139534883723,0.6,0.5
115,109.34883720930233,104.74145548046958,0.7441860465116279,0.5,0.6,0.5
104,106.85714285714286,102.93425088469732,0.5,0.7441860465116279,0.5,0.6
113,104.02380952380952,94.12450386597455,0.7142857142857143,0.7674418604651163,0.6,0.8
101,104.76744186046511,98.81593911669609,0.7674418604651163,0.7142857142857143,0.8,0.6
110,95.86046511627907,110.56890230370736,0.37209302325581395,0.3488372093023256,0.5,0.2
103,100.37209302325581,92.5867494078692,0.3488372093023256,0.37209302325581395,0.2,0.5
90,96.37209302325581,98.66870241240166,0.37209302325581395,0.5714285714285714,0.5,0.4
99,104.19047619047619,102.09448411870055,0.5714285714285714,0.37209302325581395,0.4,0.5
100,100.78571428571426,108.54955949740709,0.40476190476190477,0.27906976744186046,0.2,0.2
92,96.83720930232558,104.42331017124214,0.27906976744186046,0.40476190476190477,0.2,0.2
79,95.08888888888889,102.32829151245011,0.3333333333333333,0.4634146341463415,0.2,0.9
85,97.5609756097561,97.7623367535229,0.4634146341463415,0.3333333333333333,0.9,0.2
116,103.6,102.48959300187222,0.5555555555555556,0.3953488372093023,0.5,0.3
106,99.51162790697674,103.85816272472847,0.3953488372093023,0.5555555555555556,0.3,0.5
103,104.0,102.93425088469732,0.5909090909090909,0.75,0.5,0.7
88,109.47727272727273,99.90267836619924,0.75,0.5909090909090909,0.7,0.5
117,101.88095238095238,100.50960695021227,0.35714285714285715,0.5,0.5,0.6
125,103.5,100.86368142007082,0.5,0.35714285714285715,0.6,0.5
113,101.04545454545455,98.46710468188068,0.3181818181818182,0.5813953488372093,0.2,0.5
124,104.06976744186046,109.47289033511132,0.5813953488372093,0.3181818181818182,0.5,0.2
103,97.26190476190476,94.77374582460376,0.47619047619047616,0.5116279069767442,0.9,0.6
104,99.18604651162791,101.77285600024892,0.5116279069767442,0.47619047619047616,0.6,0.9
86,92.90697674418608,104.98002628324936,0.5116279069767442,0.4883720930232558,0.7,0.5
95,106.79069767441861,97.31554656090924,0.4883720930232558,0.5116279069767442,0.5,0.7
86,91.25581395348837,102.28053710353853,0.18604651162790697,0.6739130434782609,0.1,0.8
114,106.02173913043478,101.3302070049678,0.6739130434782609,0.18604651162790697,0.8,0.1
111,105.31111111111112,104.95132165668825,0.7777777777777778,0.5348837209302325,0.8,0.5
109,102.06976744186046,99.44138190823521,0.5348837209302325,0.7777777777777778,0.5,0.8
106,94.70454545454545,100.86368142007082,0.3409090909090909,0.3488372093023256,0.5,0.4
99,102.23255813953489,101.10341251888369,0.3488372093023256,0.3409090909090909,0.4,0.5
89,96.22727272727273,104.42331017124214,0.36363636363636365,0.4186046511627907,0.5,0.3
100,100.7674418604651,102.09448411870055,0.4186046511627907,0.36363636363636365,0.3,0.5
103,99.6590909090909,108.35525132701149,0.38636363636363635,0.2727272727272727,0.3,0.2
87,96.72727272727273,102.79664770637511,0.2727272727272727,0.38636363636363635,0.2,0.3
114,96.18181818181819,97.7623367535229,0.38636363636363635,0.32608695652173914,0.5,0.2
88,94.73913043478261,92.5867494078692,0.32608695652173914,0.38636363636363635,0.2,0.5
97,104.95652173913044,94.55349241447514,0.6304347826086957,0.75,0.6,0.7
90,104.68181818181819,103.37152381039556,0.75,0.6304347826086957,0.7,0.6
81,109.0,97.03210389019702,0.7333333333333333,0.5238095238095238,0.7,0.8
98,95.73809523809524,102.9357119761485,0.5238095238095238,0.7333333333333333,0.8,0.7
85,103.97777777777777,101.00551786178517,0.6,0.4883720930232558,0.5,0.5
88,98.90697674418605,99.90267836619924,0.4883720930232558,0.6,0.5,0.5
92,100.43181818181819,94.6269304453713,0.3409090909090909,0.7857142857142857,0.2,0.7
104,98.64285714285714,110.55597270589583,0.7857142857142857,0.3409090909090909,0.7,0.2
95,104.23255813953489,99.44138190823521,0.7209302325581395,0.782608695652174,0.6,0.9
112,105.43478260869566,98.81593911669609,0.782608695652174,0.7209302325581395,0.9,0.6
98,99.29545454545455,108.23624574196678,0.5227272727272727,0.26666666666666666,0.6,0.2
83,96.5111111111111,94.96070614677187,0.26666666666666666,0.5227272727272727,0.2,0.6
94,94.59574468085107,109.47289033511132,0.3191489361702128,0.3111111111111111,0.2,0.2
95,101.31111111111112,98.10781895025646,0.3111111111111111,0.3191489361702128,0.2,0.2
117,91.13636363636364,98.79739775729249,0.18181818181818182,0.5909090909090909,0.1,0.5
126,104.52272727272727,101.3302070049678,0.5909090909090909,0.18181818181818182,0.5,0.1
88,106.52272727272727,104.072780394623,0.5,0.4318181818181818,0.5,0.4
77,100.74999999999999,104.54866204953915,0.4318181818181818,0.5,0.4,0.5
115,103.8695652173913,103.37152381039556,0.5652173913043478,0.6382978723404256,0.6,0.7
117,104.7872340425532,103.85816272472847,0.6382978723404256,0.5652173913043478,0.7,0.6
98,104.0,97.4575497760801,0.5116279069767442,0.41304347826086957,0.6,0.4
101,93.91304347826087,100.89310446299804,0.41304347826086957,0.5116279069767442,0.4,0.6
86,104.35555555555555,97.31554656090924,0.7333333333333333,0.5,0.6,0.6
96,92.75000000000003,94.60785924970902,0.5,0.7333333333333333,0.6,0.6
89,102.1590909090909,96.65926426484361,0.3409090909090909,0.5348837209302325,0.3,0.8
99,95.79069767441861,100.98041593325102,0.5348837209302325,0.3409090909090909,0.8,0.3
110,106.19148936170212,100.64175609219915,0.6808510638297872,0.5,0.8,0.6
103,98.6590909090909,101.93414269708026,0.5,0.6808510638297872,0.6,0.8
94,98.76744186046511,99.20190002935266,0.7906976744186046,0.6,0.7,0.6
102,105.0,94.565839039665,0.6,0.7906976744186046,0.6,0.7
117,96.57777777777778,102.09448411870055,0.4,0.35555555555555557,0.5,0.4
86,96.06666666666666,92.5867494078692,0.35555555555555557,0.4,0.4,0.5
111,103.56521739130434,101.93414269708026,0.5869565217391305,0.6875,0.4,0.8
92,106.27083333333333,99.90267836619924,0.6875,0.5869565217391305,0.8,0.4
113,96.21739130434783,101.3302070049678,0.2608695652173913,0.17777777777777778,0.2,0.1
102,91.71111111111111,108.01371866061967,0.17777777777777778,0.2608695652173913,0.1,0.2
99,101.17391304347827,105.08879161903624,0.32608695652173914,0.5227272727272727,0.3,0.5
125,102.22727272727273,109.13652315391325,0.5227272727272727,0.32608695652173914,0.5,0.3
95,97.3953488372093,99.34688442082596,0.46511627906976744,0.7872340425531915,0.8,0.9
120,105.57446808510639,101.77285600024892,0.7872340425531915,0.46511627906976744,0.9,0.8
90,106.11111111111111,96.48519007700625,0.5111111111111111,0.5454545454545454,0.6,0.9
94,95.86363636363636,104.54866204953915,0.5454545454545454,0.5111111111111111,0.9,0.6
107,104.1063829787234,100.98041593325102,0.5531914893617021,0.3333333333333333,0.5,0.2
103,101.86666666666666,103.85816272472847,0.3333333333333333,0.5531914893617021,0.2,0.5
90,103.86363636363636,94.96070614677187,0.5,0.5333333333333333,0.5,0.6
100,99.26666666666667,100.89310446299804,0.5333333333333333,0.5,0.6,0.5
100,100.24444444444444,97.46909127020605,0.3333333333333333,0.425531914893617,0.2,0.5
110,94.06382978723404,110.55597270589583,0.425531914893617,0.3333333333333333,0.5,0.2
90,94.95555555555555,99.90267836619924,0.35555555555555557,0.5957446808510638,0.5,0.4
95,103.72340425531915,101.10341251888369,0.5957446808510638,0.35555555555555557,0.4,0.5
97,98.6590909090909,101.77285600024892,0.7727272727272727,0.45454545454545453,0.7,0.7
96,97.3409090909091,94.565839039665,0.45454545454545453,0.7727272727272727,0.7,0.7
96,98.75555555555556,99.25632432872543,0.4888888888888889,0.7916666666666666,0.6,1
81,105.875,100.84971706792805,0.7916666666666666,0.4888888888888889,1,0.6
120,102.73333333333333,104.54866204953915,0.5333333333333333,0.5,0.6,0.5
113,105.76086956521739,104.95348513861322,0.5,0.5333333333333333,0.5,0.6
113,99.73333333333333,109.13652315391325,0.4,0.3191489361702128,0.4,0.3
96,101.12765957446808,102.79664770637511,0.3191489361702128,0.4,0.3,0.4
106,105.04166666666667,102.41851707264185,0.6458333333333334,0.34782608695652173,0.7,0.3
92,95.84782608695652,103.6137837310123,0.34782608695652173,0.6458333333333334,0.3,0.7
99,95.82222222222222,101.58389815703372,0.5555555555555556,0.17391304347826086,0.9,0.1
90,91.93478260869566,96.34107474196168,0.17391304347826086,0.5555555555555556,0.1,0.9
88,100.2222222222222,97.06408997066681,0.4222222222222222,0.5111111111111111,0.4,0.6
79,92.82222222222227,103.71560749696471,0.5111111111111111,0.4222222222222222,0.6,0.4
91,97.02173913043478,98.81593911669609,0.41304347826086957,0.7045454545454546,0.5,0.5
106,104.02272727272727,92.5867494078692,0.7045454545454546,0.41304347826086957,0.5,0.5
95,103.95652173913044,101.11127645644122,0.717391304347826,0.32608695652173914,0.5,0.2
93,101.8913043478261,94.60785924970902,0.32608695652173914,0.717391304347826,0.2,0.5
105,104.93478260869566,97.52181853541009,0.6086956521739131,0.4375,0.7,0.6
95,94.39583333333333,99.08881524610585,0.4375,0.6086956521739131,0.6,0.7
106,108.3913043478261,94.85286470879858,0.717391304347826,0.5434782608695652,0.6,0.6
103,99.28260869565217,102.9357119761485,0.5434782608695652,0.717391304347826,0.6,0.6
102,105.9795918367347,101.10341251888369,0.673469387755102,0.34782608695652173,0.7,0.5
87,94.84782608695652,102.11916019305822,0.34782608695652173,0.673469387755102,0.5,0.7
96,94.58333333333333,108.01371866061967,0.3125,0.2765957446808511,0.2,0.3
89,96.57446808510639,98.10781895025646,0.2765957446808511,0.3125,0.3,0.2
98,98.62222222222222,107.7634328551901,0.7777777777777778,0.2708333333333333,0.7,0.3
79,96.41666666666667,94.565839039665,0.2708333333333333,0.7777777777777778,0.3,0.7
100,98.69565217391305,102.9357119761485,0.5,0.723404255319149,0.6,0.6
90,108.34042553191489,100.84971706792805,0.723404255319149,0.5,0.6,0.6
108,97.31111111111112,109.21701225487338,0.4444444444444444,0.3125,0.6,0.2
102,101.02083333333333,101.66679253357673,0.3125,0.4444444444444444,0.2,0.6
102,104.06666666666666,102.79664770637511,0.7111111111111111,0.41304347826086957,0.6,0.5
96,100.02173913043478,98.64225158076951,0.41304347826086957,0.7111111111111111,0.5,0.6
101,91.8936170212766,92.5867494078692,0.1702127659574468,0.40425531914893614,0.1,0.4
98,96.8936170212766,101.52892160050108,0.40425531914893614,0.1702127659574468,0.4,0.1
95,99.95652173913041,94.60785924970902,0.43478260869565216,0.723404255319149,0.5,0.5
102,103.76595744680851,103.71560749696471,0.723404255319149,0.43478260869565216,0.5,0.5
86,105.36734693877551,96.34107474196168,0.7755102040816326,0.5652173913043478,0.9,0.9
77,95.8913043478261,99.18986873018001,0.5652173913043478,0.7755102040816326,0.9,0.9
124,104.16666666666667,102.49471883705372,0.5625,0.3404255319148936,0.5,0.3
107,95.76595744680851,103.85816272472847,0.3404255319148936,0.5625,0.3,0.5
116,103.55555555555556,102.11916019305822,0.4888888888888889,0.68,0.4,0.7
115,105.9,100.89310446299804,0.68,0.4888888888888889,0.7,0.4
79,94.68085106382979,95.09003780010073,0.3404255319148936,0.5319148936170213,0.4,0.6
94,99.36170212765957,101.12248884826914,0.5319148936170213,0.3404255319148936,0.6,0.4
99,101.70212765957447,96.86704453652187,0.3191489361702128,0.5,0.1,0.6
70,92.52173913043482,100.98124929779352,0.5,0.3191489361702128,0.6,0.1
85,103.1086956521739,94.565839039665,0.5434782608695652,0.782608695652174,0.6,0.7
89,98.6086956521739,104.95348513861322,0.782608695652174,0.5434782608695652,0.7,0.6
109,105.91489361702128,110.55597270589583,0.48936170212765956,0.32608695652173914,0.5,0.2
99,100.23913043478261,104.87741392082555,0.32608695652173914,0.48936170212765956,0.2,0.5
92,104.93617021276596,96.91242656765971,0.6170212765957447,0.48936170212765956,0.8,0.5
101,92.0425531914894,99.08881524610585,0.48936170212765956,0.6170212765957447,0.5,0.8
75,103.54166666666667,97.67443448366703,0.6041666666666666,0.42857142857142855,0.5,0.5
91,94.40816326530613,99.69637256690343,0.42857142857142855,0.6041666666666666,0.5,0.5
108,96.0,110.52286690364272,0.3333333333333333,0.3191489361702128,0.2,0.2
119,100.2127659574468,102.94274552794843,0.3191489361702128,0.3333333333333333,0.2,0.2
112,96.06122448979592,102.77969775517565,0.2653061224489796,0.40425531914893614,0.3,0.4
98,99.93617021276596,107.56417912345152,0.40425531914893614,0.2653061224489796,0.4,0.3
108,101.04081632653062,98.10781895025646,0.30612244897959184,0.32653061224489793,0.2,0.3
114,94.61224489795919,109.19217527008004,0.32653061224489793,0.30612244897959184,0.3,0.2
118,98.72340425531915,94.61602884867341,0.5106382978723404,0.7291666666666666,0.6,0.5
125,103.72916666666667,100.84971706792805,0.7291666666666666,0.5106382978723404,0.5,0.6
122,105.06122448979592,99.08881524610585,0.6530612244897959,0.6041666666666666,0.7,0.7
108,104.66666666666667,103.6137837310123,0.6041666666666666,0.6530612244897959,0.7,0.7
96,95.48936170212765,103.85816272472847,0.5531914893617021,0.5714285714285714,0.8,0.5
110,104.57142857142857,96.12105187511143,0.5714285714285714,0.5531914893617021,0.5,0.8
105,99.85106382978721,104.95348513861322,0.425531914893617,0.5319148936170213,0.5,0.5
100,102.72340425531915,103.71560749696471,0.5319148936170213,0.425531914893617,0.5,0.5
90,96.91666666666667,102.87455130997874,0.3958333333333333,0.7083333333333334,0.4,0.5
94,107.95833333333333,92.76202546187193,0.7083333333333334,0.3958333333333333,0.5,0.4
106,104.98,104.87741392082555,0.78,0.5,0.9,0.6
97,105.97916666666667,99.18986873018001,0.5,0.78,0.6,0.9
110,103.82608695652173,101.52892160050108,0.5,0.1875,0.4,0.2
100,92.08333333333333,100.89310446299804,0.1875,0.5,0.2,0.4
109,101.64583333333333,94.7548286792653,0.3333333333333333,0.5416666666666666,0.2,0.6
101,99.25,100.98124929779352,0.5416666666666666,0.3333333333333333,0.6,0.2
112,106.07843137254902,98.64225158076951,0.6666666666666666,0.717391304347826,0.6,0.7
116,104.02173913043478,102.39133352260609,0.717391304347826,0.6666666666666666,0.7,0.6
103,97.54347826086956,95.09325274972089,0.45652173913043476,0.7346938775510204,0.6,0.5
89,104.16326530612245,101.66679253357673,0.7346938775510204,0.45652173913043476,0.5,0.6
102,102.95918367346938,96.81008434750014,0.5918367346938775,0.5,0.4,0.6
87,92.2291666666667,99.69637256690343,0.5,0.5918367346938775,0.6,0.4
118,98.40425531914893,102.61180536487713,0.7872340425531915,0.7142857142857143,0.7,0.5
113,107.6734693877551,94.36231054945935,0.7142857142857143,0.7872340425531915,0.5,0.7
103,96.38,99.18986873018001,0.28,0.7843137254901961,0.3,0.9
102,105.0,107.56417912345152,0.7843137254901961,0.28,0.9,0.3
98,101.18,110.4703071764835,0.3,0.3333333333333333,0.2,0.3
112,100.60416666666667,109.19217527008004,0.3333333333333333,0.3,0.3,0.2
113,99.125,102.94274552794843,0.5,0.32653061224489793,0.5,0.2
115,96.24489795918367,100.84971706792805,0.32653061224489793,0.5,0.2,0.5
99,95.0,100.98124929779352,0.34,0.3469387755102041,0.3,0.3
89,101.79591836734694,98.30566257125132,0.3469387755102041,0.34,0.3,0.3
111,99.89583333333333,101.66679253357673,0.3958333333333333,0.46808510638297873,0.3,0.7
95,97.65957446808511,102.97178738527616,0.46808510638297873,0.3958333333333333,0.7,0.3
117,96.77551020408163,100.89310446299804,0.3877551020408163,0.5106382978723404,0.4,0.5
90,103.95744680851064,92.76202546187193,0.5106382978723404,0.3877551020408163,0.5,0.4
103,104.68,101.12248884826914,0.58,0.3333333333333333,0.6,0.4
81,94.35416666666667,103.70099947023391,0.3333333333333333,0.58,0.4,0.6
98,99.95833333333331,104.9003238408087,0.4375,0.4897959183673469,0.6,0.6
91,105.79591836734694,103.71560749696471,0.4897959183673469,0.4375,0.6,0.6
118,106.1923076923077,95.04554646132111,0.6538461538461539,0.5306122448979592,0.6,0.6
105,99.28571428571429,102.39133352260609,0.5306122448979592,0.6538461538461539,0.6,0.6
100,94.34,95.25138769472647,0.44,0.72,0.6,0.5
104,103.86,97.22094579399369,0.72,0.44,0.5,0.6
76,102.66666666666667,96.12105187511143,0.5208333333333334,0.5416666666666666,0.5,0.7
79,95.5,104.95445419822545,0.5416666666666666,0.5208333333333334,0.7,0.5
126,100.12244897959184,101.22866478668557,0.40816326530612246,0.5,0.4,0.4
109,103.66666666666667,102.97178738527616,0.5,0.40816326530612246,0.4,0.4
110,105.5,102.91956925757958,0.48,0.7,0.5,0.4
117,107.78,104.76231736399251,0.7,0.48,0.4,0.5
95,92.24489795918367,103.6137837310123,0.1836734693877551,0.66,0.2,0.7
101,105.4,101.70180075151127,0.66,0.1836734693877551,0.7,0.2
122,104.73469387755102,99.69637256690343,0.5918367346938775,0.6,0.7,0.5
109,102.94,99.55639044516491,0.6,0.5918367346938775,0.5,0.7
94,94.08163265306122,98.92645899394462,0.32653061224489793,0.723404255319149,0.3,0.8
89,104.27659574468085,101.1608054023861,0.723404255319149,0.32653061224489793,0.8,0.3
112,104.9423076923077,92.76202546187193,0.7692307692307693,0.4,0.8,0.5
100,97.18,99.26314048536885,0.4,0.7692307692307693,0.5,0.8
86,100.83673469387755,96.91600099346952,0.3469387755102041,0.4897959183673469,0.3,0.5
92,92.12244897959188,110.2158111116573,0.4897959183673469,0.3469387755102041,0.5,0.3
91,95.07843137254902,103.70099947023391,0.35294117647058826,0.5882352941176471,0.4,0.6
102,104.6470588235294,98.30566257125132,0.5882352941176471,0.35294117647058826,0.6,0.4
93,97.60416666666667,103.71560749696471,0.4583333333333333,0.4489795918367347,0.6,0.7
81,99.91836734693875,101.86123435579388,0.4489795918367347,0.4583333333333333,0.7,0.6
91,96.62,95.71041816337446,0.34,0.5510204081632653,0.2,0.7
83,95.16326530612245,103.14389061738946,0.5510204081632653,0.34,0.7,0.2
93,96.50980392156863,94.36231054945935,0.29411764705882354,0.7916666666666666,0.4,0.7
92,98.8125,107.56417912345152,0.7916666666666666,0.29411764705882354,0.7,0.4
93,99.40816326530613,100.94162431183766,0.4897959183673469,0.34,0.5,0.2
84,101.54,100.84971706792805,0.34,0.4897959183673469,0.2,0.5
123,106.41509433962264,109.19217527008004,0.660377358490566,0.29411764705882354,0.6,0.2
78,101.11764705882354,102.39133352260609,0.29411764705882354,0.660377358490566,0.2,0.6
119,98.6734693877551,101.73420224001852,0.7755102040816326,0.4897959183673469,0.6,0.4
80,103.77551020408163,94.33450829334792,0.4897959183673469,0.7755102040816326,0.4,0.6
108,99.4,103.5012953470254,0.52,0.44,0.6,0.6
101,99.53999999999998,95.5046355320947,0.44,0.52,0.6,0.6
109,100.64,95.34449773992792,0.42,0.7254901960784313,0.4,0.5
100,103.86274509803921,102.97178738527616,0.7254901960784313,0.42,0.5,0.4
86,92.3,98.30566257125132,0.18,0.34615384615384615,0.2,0.4
102,95.0,101.70180075151127,0.34615384615384615,0.18,0.4,0.2
89,105.58823529411765,103.44488601079637,0.47058823529411764,0.6666666666666666,0.4,0.8
107,105.31372549019608,104.76231736399251,0.6666666666666666,0.47058823529411764,0.8,0.4
123,103.05882352941177,109.45771036104004,0.5882352941176471,0.28846153846153844,0.5,0.1
80,100.67307692307692,100.13369859500337,0.28846153846153844,0.5882352941176471,0.1,0.5
114,94.45098039215686,103.45674948042172,0.43137254901960786,0.5961538461538461,0.5,0.7
89,104.59615384615384,97.22094579399369,0.5961538461538461,0.43137254901960786,0.7,0.5
109,96.50980392156863,100.78590618807614,0.35294117647058826,0.3333333333333333,0.3,0.2
99,101.19607843137256,103.14389061738946,0.3333333333333333,0.35294117647058826,0.2,0.3
100,92.12000000000003,104.95445419822545,0.5,0.5102040816326531,0.5,0.5
85,102.12244897959184,96.69768097360013,0.5102040816326531,0.5,0.5,0.5
92,94.92,100.84971706792805,0.54,0.5,0.7,0.5
89,99.28,95.61620980010697,0.5,0.54,0.5,0.7
97,105.08,98.82382443157077,0.6,0.7083333333333334,0.7,0.7
103,103.95833333333333,99.55639044516491,0.7083333333333334,0.6,0.7,0.7
95,107.96078431372548,99.26314048536885,0.7058823529411765,0.7735849056603774,0.5,0.8
98,105.0754716981132,103.05840123292117,0.7735849056603774,0.7058823529411765,0.8,0.5
79,100.54,101.1608054023861,0.34,0.34,0.2,0.4
96,94.08,110.2158111116573,0.34,0.34,0.4,0.2
73,99.08,103.6556787355081,0.78,0.5849056603773585,0.7,0.6
81,104.30188679245283,94.33450829334792,0.5849056603773585,0.78,0.6,0.7
81,96.4423076923077,95.61620980010697,0.3076923076923077,0.5490196078431373,0.5,0.7
86,94.86274509803921,107.56417912345152,0.5490196078431373,0.3076923076923077,0.7,0.5
104,99.56862745098039,104.85536511426093,0.5294117647058824,0.5,0.6,0.4
83,101.78,95.5046355320947,0.5,0.5294117647058824,0.4,0.6
92,95.13207547169812,95.60710355262161,0.3584905660377358,0.7115384615384616,0.5,0.5
104,103.78846153846153,98.0734802585862,0.7115384615384616,0.3584905660377358,0.5,0.5
105,97.51020408163265,97.22094579399369,0.46938775510204084,0.4423076923076923,0.6,0.6
89,94.82692307692308,101.86123435579388,0.4423076923076923,0.46938775510204084,0.6,0.6
89,100.80392156862744,103.14389061738946,0.43137254901960786,0.36538461538461536,0.5,0.4
93,96.75,102.97178738527616,0.36538461538461536,0.43137254901960786,0.4,0.5
101,97.23529411764706,100.94386953061313,0.39215686274509803,0.3269230769230769,0.5,0.2
106,101.15384615384616,93.13924064889405,0.3269230769230769,0.39215686274509803,0.2,0.5
113,105.34615384615384,100.67619320385103,0.6730769230769231,0.49019607843137253,0.8,0.5
112,99.07843137254902,103.16709974135799,0.49019607843137253,0.6730769230769231,0.5,0.8
98,92.17647058823529,103.58950524218177,0.17647058823529413,0.43137254901960786,0.1,0.6
102,99.56862745098037,101.70180075151127,0.43137254901960786,0.17647058823529413,0.6,0.1
117,105.26923076923077,102.07951819521816,0.46153846153846156,0.48,0.3,0.4
90,103.3,104.76231736399251,0.48,0.46153846153846156,0.4,0.3
105,94.11764705882354,109.71322525988835,0.35294117647058826,0.2830188679245283,0.4,0.1
100,100.28301886792453,100.72627980626089,0.2830188679245283,0.35294117647058826,0.1,0.4
110,103.4423076923077,98.78660352480402,0.5961538461538461,0.7142857142857143,0.5,0.7
111,103.93877551020408,100.13369859500337,0.7142857142857143,0.5961538461538461,0.7,0.5
122,106.72222222222223,103.05840123292117,0.6666666666666666,0.6923076923076923,0.7,0.5
117,107.71153846153847,102.39133352260609,0.6923076923076923,0.6666666666666666,0.5,0.7
92,92.2745098039216,101.86123435579388,0.5098039215686274,0.48,0.5,0.6
76,97.66,96.69768097360013,0.48,0.5098039215686274,0.6,0.5
103,100.11764705882354,99.1841934393435,0.3333333333333333,0.7777777777777778,0.2,0.8
107,104.94444444444444,110.2158111116573,0.7777777777777778,0.3333333333333333,0.8,0.2
108,98.56862745098039,104.83859324927542,0.7647058823529411,0.49019607843137253,0.6,0.3
98,101.41176470588235,94.33450829334792,0.49019607843137253,0.7647058823529411,0.3,0.6
85,100.27777777777777,102.877024756684,0.2777777777777778,0.37735849056603776,0.1,0.4
114,96.67924528301887,109.62594331063116,0.37735849056603776,0.2777777777777778,0.4,0.1
93,99.32692307692308,95.5046355320947,0.4807692307692308,0.5384615384615384,0.4,0.6
103,99.65384615384616,100.91318948839236,0.5384615384615384,0.4807692307692308,0.6,0.4
96,100.57692307692308,97.3677204016542,0.4230769230769231,0.4339622641509434,0.5,0.5
108,94.71698113207547,102.97178738527616,0.4339622641509434,0.4230769230769231,0.5,0.5
98,94.6923076923077,93.13924064889405,0.5576923076923077,0.38461538461538464,0.7,0.5
93,97.3076923076923,95.3351288424126,0.38461538461538464,0.5576923076923077,0.5,0.7
104,92.28846153846153,107.56417912345152,0.17307692307692307,0.3018867924528302,0.1,0.4
100,96.15094339622641,101.70180075151127,0.3018867924528302,0.17307692307692307,0.4,0.1
106,103.87037037037037,99.01087145430795,0.5925925925925926,0.72,0.7,0.8
117,104.08,103.08798098114684,0.72,0.5925925925925926,0.8,0.7
107,103.03921568627452,99.55639044516491,0.47058823529411764,0.5882352941176471,0.4,0.6
112,104.92156862745098,102.37207666197858,0.5882352941176471,0.47058823529411764,0.6,0.4
103,107.0,95.53904499502498,0.6727272727272727,0.7169811320754716,0.7,0.5
113,103.79245283018868,102.39133352260609,0.7169811320754716,0.6727272727272727,0.5,0.7
116,94.96296296296296,102.97178738527616,0.4444444444444444,0.41509433962264153,0.5,0.5
98,100.49056603773585,97.342392246068,0.41509433962264153,0.4444444444444444,0.5,0.5
101,97.0,107.49817580635056,0.3888888888888889,0.2962962962962963,0.5,0.4
93,96.22222222222223,102.54596874267133,0.2962962962962963,0.3888888888888889,0.4,0.5
92,99.71698113207547,96.69768097360013,0.5471698113207547,0.5192307692307693,0.7,0.6
94,92.2692307692308,95.45737825790422,0.5192307692307693,0.5471698113207547,0.6,0.7
97,101.34615384615384,100.91318948839236,0.4807692307692308,0.4716981132075472,0.3,0.4
114,99.20754716981132,104.8993895329432,0.4716981132075472,0.4807692307692308,0.4,0.3
104,105.49056603773585,94.33450829334792,0.4716981132075472,0.7692307692307693,0.4,0.7
91,98.75,104.76231736399251,0.7692307692307693,0.4716981132075472,0.7,0.4
91,99.6153846153846,93.23095308948095,0.4423076923076923,0.37735849056603776,0.6,0.4
98,97.22641509433963,103.4820147567552,0.37735849056603776,0.4423076923076923,0.4,0.6
100,105.0576923076923,98.0734802585862,0.5961538461538461,0.35185185185185186,0.7,0.4
94,95.07407407407408,99.69953678275789,0.35185185185185186,0.5961538461538461,0.4,0.7
99,94.32692307692308,101.66787681940576,0.36538461538461536,0.47058823529411764,0.5,0.5
105,97.23529411764706,100.72627980626089,0.47058823529411764,0.36538461538461536,0.5,0.5
109,107.88679245283019,95.67721082845044,0.6792452830188679,0.7222222222222222,0.4,0.6
111,103.96296296296296,103.4157898889038,0.7222222222222222,0.6792452830188679,0.6,0.4
92,101.24528301886792,100.13369859500337,0.33962264150943394,0.5849056603773585,0.3,0.5
101,103.56603773584905,100.94492859607327,0.5849056603773585,0.33962264150943394,0.5,0.3
108,100.17307692307692,103.16709974135799,0.3269230769230769,0.6792452830188679,0.2,0.8
134,105.49056603773585,110.2158111116573,0.6792452830188679,0.3269230769230769,0.8,0.2
90,92.50943396226415,102.37207666197858,0.18867924528301888,0.46153846153846156,0.2,0.3
101,103.11538461538461,101.70180075151127,0.46153846153846156,0.18867924528301888,0.3,0.2
81,104.98181818181818,99.14791319049799,0.7818181818181819,0.7254901960784313,0.8,0.8
103,104.33333333333333,99.25357174044635,0.7254901960784313,0.7818181818181819,0.8,0.8
102,103.51851851851852,103.25659789429581,0.5925925925925926,0.6851851851851852,0.6,0.8
99,106.01851851851852,99.98307454694775,0.6851851851851852,0.5925925925925926,0.8,0.6
90,95.34545454545454,103.4820147567552,0.45454545454545453,0.4339622641509434,0.6,0.5
87,99.45283018867923,97.342392246068,0.4339622641509434,0.45454545454545453,0.5,0.6
129,96.16363636363636,93.18963914337945,0.2909090909090909,0.3888888888888889,0.4,0.4
121,97.24074074074075,107.380027155326,0.3888888888888889,0.2909090909090909,0.4,0.4
112,100.0,103.08798098114684,0.2727272727272727,0.5818181818181818,0.1,0.7
124,103.9090909090909,109.62594331063116,0.5818181818181818,0.2727272727272727,0.7,0.1
98,99.57407407407408,102.54596874267133,0.5370370370370371,0.4,0.6,0.6
91,97.07272727272728,95.45737825790422,0.4,0.5370370370370371,0.6,0.6
115,100.44444444444444,104.8993895329432,0.4074074074074074,0.4716981132075472,0.5,0.2
107,101.26415094339623,103.21305058184511,0.4716981132075472,0.4074074074074074,0.2,0.5
117,92.30188679245286,102.13864125326201,0.5283018867924528,0.4716981132075472,0.6,0.3
89,103.0754716981132,96.6090454835322,0.4716981132075472,0.5283018867924528,0.3,0.6
102,94.75471698113208,102.39133352260609,0.5660377358490566,0.6607142857142857,0.7,0.6
96,106.92857142857143,95.3351288424126,0.6607142857142857,0.5660377358490566,0.6,0.7
106,104.9622641509434,95.91944335884224,0.6037735849056604,0.7272727272727273,0.7,0.7
85,104.0909090909091,99.69953678275789,0.7272727272727273,0.6037735849056604,0.7,0.7
102,107.9074074074074,100.72627980626089,0.6666666666666666,0.3584905660377358,0.3,0.5
94,94.41509433962264,103.4157898889038,0.3584905660377358,0.6666666666666666,0.5,0.3
101,100.32075471698113,98.10850789024828,0.32075471698113206,0.34545454545454546,0.2,0.4
92,95.05454545454545,110.2158111116573,0.34545454545454546,0.32075471698113206,0.4,0.2
92,95.25,95.3351288424126,0.4642857142857143,0.5740740740740741,0.7,0.7
89,94.88888888888889,97.342392246068,0.5740740740740741,0.4642857142857143,0.7,0.7
94,99.48148148148148,103.23234781681529,0.48148148148148145,0.42592592592592593,0.4,0.4
93,99.2222222222222,100.8407230163851,0.42592592592592593,0.48148148148148145,0.4,0.4
107,101.37037037037037,93.84073661349983,0.46296296296296297,0.38181818181818183,0.2,0.3
98,97.67272727272727,105.08643787492574,0.38181818181818183,0.46296296296296297,0.3,0.2
102,100.7090909090909,103.24712417791207,0.41818181818181815,0.5892857142857143,0.5,0.7
113,104.26785714285714,103.21305058184511,0.5892857142857143,0.41818181818181815,0.7,0.5
100,92.46296296296296,94.51687606139795,0.18518518518518517,0.7547169811320755,0.2,0.6
110,98.60377358490567,101.70180075151127,0.7547169811320755,0.18518518518518517,0.6,0.2
104,94.4074074074074,104.76231736399251,0.35185185185185186,0.48148148148148145,0.4,0.4
121,105.46296296296296,100.74986721725607,0.48148148148148145,0.35185185185185186,0.4,0.4
105,101.07407407407408,98.16014167792241,0.3333333333333333,0.3392857142857143,0.3,0.4
98,95.0,100.94492859607327,0.3392857142857143,0.3333333333333333,0.4,0.3
93,103.49090909090908,101.61657149595565,0.6,0.4807692307692308,0.6,0.5
86,97.38461538461539,99.98307454694775,0.4807692307692308,0.6,0.5,0.6
117,104.55357142857143,102.38446802220949,0.7678571428571429,0.6491228070175439,0.7,0.5
125,106.73684210526316,99.25357174044635,0.6491228070175439,0.7678571428571429,0.5,0.7
93,104.3076923076923,96.6090454835322,0.7307692307692307,0.5370370370370371,0.8,0.7
79,92.7592592592593,98.79891485991149,0.5370370370370371,0.7307692307692307,0.7,0.8
83,96.96428571428571,100.8407230163851,0.39285714285714285,0.4909090909090909,0.6,0.5
96,99.38181818181818,102.46479072940936,0.4909090909090909,0.39285714285714285,0.5,0.6
105,99.54545454545455,107.380027155326,0.5454545454545454,0.30357142857142855,0.6,0.5
90,96.75,95.45737825790422,0.30357142857142855,0.5454545454545454,0.5,0.6
95,102.81481481481481,100.94492859607327,0.46296296296296297,0.34545454545454546,0.3,0.4
109,101.14545454545454,102.41385160042383,0.34545454545454546,0.46296296296296297,0.4,0.3
102,100.33333333333333,101.45399467527724,0.3333333333333333,0.4716981132075472,0.3,0.5
108,97.16981132075472,110.2158111116573,0.4716981132075472,0.3333333333333333,0.5,0.3
112,104.98148148148148,103.23375065985407,0.6111111111111112,0.6727272727272727,0.7,0.8
115,105.89090909090909,99.69953678275789,0.6727272727272727,0.6111111111111112,0.8,0.7
108,107.8,104.74845704828356,0.6727272727272727,0.4909090909090909,0.4,0.4
97,105.74545454545455,103.4157898889038,0.4909090909090909,0.6727272727272727,0.4,0.4
110,100.21428571428571,101.70180075151127,0.26785714285714285,0.18181818181818182,0,0.2
130,92.6,109.62594331063116,0.18181818181818182,0.26785714285714285,0.2,0
96,100.73214285714286,99.98307454694775,0.4107142857142857,0.6071428571428571,0.4,0.7
104,103.30357142857143,103.21305058184511,0.6071428571428571,0.4107142857142857,0.7,0.4
108,97.67857142857143,103.22524480636976,0.375,0.5964912280701754,0.2,0.8
110,104.42105263157895,94.07572345968732,0.5964912280701754,0.375,0.8,0.2
110,99.1090909090909,102.63645995286105,0.41818181818181815,0.6551724137931034,0.4,0.5
123,107.05172413793103,103.06448694741864,0.6551724137931034,0.41818181818181815,0.5,0.4
110,94.58181818181818,98.28013919234482,0.34545454545454546,0.3333333333333333,0.3,0.4
98,95.05263157894737,100.74986721725607,0.3333333333333333,0.34545454545454546,0.4,0.3
93,96.71929824561404,95.45737825790422,0.38596491228070173,0.5535714285714286,0.6,0.6
99,99.64285714285714,102.46479072940936,0.5535714285714286,0.38596491228070173,0.6,0.6
118,98.81481481481481,110.2158111116573,0.7592592592592593,0.32727272727272727,0.7,0.3
98,100.36363636363636,94.61841539359429,0.32727272727272727,0.7592592592592593,0.3,0.7
115,99.32142857142857,107.33827229295186,0.5,0.2982456140350877,0.5,0.4
106,96.63157894736842,100.52213867680679,0.2982456140350877,0.5,0.4,0.5
103,101.47272727272727,96.54342647474071,0.4727272727272727,0.5272727272727272,0.2,0.6
107,92.50909090909094,105.08643787492574,0.5272727272727272,0.4727272727272727,0.6,0.2
95,102.67272727272727,103.4157898889038,0.45454545454545453,0.6785714285714286,0.3,0.5
100,107.80357142857143,102.41385160042383,0.6785714285714286,0.45454545454545453,0.5,0.3
101,105.10909090909091,104.80652031527849,0.6,0.48214285714285715,0.6,0.4
110,105.58928571428571,99.69953678275789,0.48214285714285715,0.6,0.4,0.6
103,101.28571428571429,103.39029082664239,0.35714285714285715,0.6785714285714286,0.5,0.9
129,106.05357142857143,100.83876915685768,0.6785714285714286,0.35714285714285715,0.9,0.5
90,100.3859649122807,107.47037104652165,0.2631578947368421,0.29310344827586204,0,0.4
101,96.79310344827586,109.62594331063116,0.29310344827586204,0.2631578947368421,0.4,0
115,95.10344827586206,105.08643787492574,0.3275862068965517,0.4642857142857143,0.4,0.1
104,101.5,98.48220575799405,0.4642857142857143,0.3275862068965517,0.1,0.4
103,92.76785714285718,99.91319604612411,0.5357142857142857,0.6140350877192983,0.7,0.7
